Application:, Trigno Discover (1.7.0)
Date/Time:, 11/4/2024 11:12:31 AM
Collection Length (seconds):, 31.8195
Avanti Sensor 0 (64624), , Avanti Sensor 2 (64680)
sensor mode: 40, , sensor mode: 66
EMG 1 Time Series (s), EMG 1 (mV), EMG 1 Time Series (s), EMG 1 (mV), ORIENTATION W Time Series (s), ORIENTATION W (Quaternions), ORIENTATION X Time Series (s), ORIENTATION X (Quaternions), ORIENTATION Y Time Series (s), ORIENTATION Y (Quaternions), ORIENTATION Z Time Series (s), ORIENTATION Z (Quaternions)
, 2148.1481 Hz, , 1777.7778 Hz, , 74.0741 Hz, , 74.0741 Hz, , 74.0741 Hz, , 74.0741 Hz
0, -0.0125887, 0, -0.024506, 0, 0.4712524, 0, -0.2614136, 0, -0.6295166, 0, 0.5597534
0.0004655, -0.0115816, 0.0005625, -0.03122, 0.0135, 0.4710693, 0.0135, -0.2612915, 0.0135, -0.6296387, 0.0135, 0.5598145
0.000931, -0.0105745, 0.001125, -0.0365911, 0.027, 0.4707642, 0.027, -0.2611694, 0.027, -0.6298828, 0.027, 0.5598145
0.0013966, -0.012253, 0.0016875, -0.0412909, 0.0405, 0.4706421, 0.0405, -0.2612305, 0.0405, -0.6299438, 0.0405, 0.5598145
0.0018621, -0.0149386, 0.00225, -0.0365911, 0.054, 0.4706421, 0.054, -0.2612305, 0.054, -0.6300049, 0.054, 0.5597534
0.0023276, -0.0149386, 0.0028125, -0.0214847, 0.0675, 0.4706421, 0.0675, -0.2612915, 0.0675, -0.6300659, 0.0675, 0.5596924
0.0027931, -0.012253, 0.003375, -0.0057069, 0.081, 0.4706421, 0.081, -0.2613525, 0.081, -0.6300659, 0.081, 0.5596313
0.0032586, -0.0119173, 0.0039375, 0.0057069, 0.0945, 0.47052, 0.0945, -0.2614136, 0.0945, -0.630127, 0.0945, 0.5596924
0.0037241, -0.0149386, 0.0045, 0.0093996, 0.108, 0.47052, 0.108, -0.2614136, 0.108, -0.6300659, 0.108, 0.5596924
0.0041897, -0.0159457, 0.0050625, 0.0020142, 0.1215, 0.47052, 0.1215, -0.2614746, 0.1215, -0.6300659, 0.1215, 0.5596924
0.0046552, -0.0149386, 0.005625, -0.0171206, 0.135, 0.470459, 0.135, -0.2615967, 0.135, -0.630127, 0.135, 0.5596313
0.0051207, -0.0142672, 0.0061875, -0.0433051, 0.1485, 0.470459, 0.1485, -0.2616577, 0.1485, -0.6300659, 0.1485, 0.5596313
0.0055862, -0.0157778, 0.00675, -0.0560616, 0.162, 0.470459, 0.162, -0.2617798, 0.162, -0.6300049, 0.162, 0.5596313
0.0060517, -0.0169528, 0.0073125, -0.0594186, 0.1755, 0.47052, 0.1755, -0.2619019, 0.1755, -0.6299438, 0.1755, 0.5596313
0.0065172, -0.0159457, 0.007875, -0.0782177, 0.189, 0.47052, 0.189, -0.2619629, 0.189, -0.6299438, 0.189, 0.5596313
0.0069828, -0.0135958, 0.0084375, -0.1037308, 0.2025, 0.47052, 0.2025, -0.262085, 0.2025, -0.6298828, 0.2025, 0.5595703
0.0074483, -0.0119173, 0.009, -0.1131304, 0.216, 0.4705811, 0.216, -0.262207, 0.216, -0.6298218, 0.216, 0.5595703
0.0079138, -0.0142672, 0.0095625, -0.1047379, 0.2295, 0.4706421, 0.2295, -0.2622681, 0.2295, -0.6297607, 0.2295, 0.5595703
0.0083793, -0.0152743, 0.010125, -0.0822461, 0.243, 0.4707642, 0.243, -0.2623901, 0.243, -0.6296997, 0.243, 0.5594482
0.0088448, -0.0152743, 0.0106875, -0.0570687, 0.2565, 0.4708862, 0.2565, -0.2624512, 0.2565, -0.6296387, 0.2565, 0.5594482
0.0093103, -0.014435, 0.01125, -0.0379339, 0.27, 0.4709473, 0.27, -0.2625122, 0.27, -0.6295776, 0.27, 0.5593872
0.0097759, -0.0139315, 0.0118125, -0.0285344, 0.2835, 0.4710693, 0.2835, -0.2625732, 0.2835, -0.6295166, 0.2835, 0.5593262
0.0102414, -0.0139315, 0.012375, -0.0265202, 0.297, 0.4710693, 0.297, -0.2626343, 0.297, -0.6295166, 0.297, 0.5593262
0.0107069, -0.0129244, 0.0129375, -0.0258488, 0.3105, 0.4713135, 0.3105, -0.2630005, 0.3105, -0.6293335, 0.3105, 0.5591431
0.0111724, -0.011078, 0.0135, -0.0271916, 0.324, 0.4712524, 0.324, -0.2630615, 0.324, -0.6293335, 0.324, 0.5591431
0.0116379, -0.0105745, 0.0140625, -0.0265202, 0.3375, 0.4714355, 0.3375, -0.2632446, 0.3375, -0.6291504, 0.3375, 0.559082
0.0121034, -0.0092317, 0.014625, -0.024506, 0.351, 0.4713135, 0.351, -0.2631836, 0.351, -0.6292114, 0.351, 0.5592041
0.012569, -0.0095674, 0.0151875, -0.0238346, 0.3645, 0.4713745, 0.3645, -0.2631226, 0.3645, -0.6291504, 0.3645, 0.5592651
0.0130345, -0.0112459, 0.01575, -0.0218204, 0.378, 0.4714966, 0.378, -0.2632446, 0.378, -0.6290283, 0.378, 0.5592041
0.0135, -0.0129244, 0.0163125, -0.0154421, 0.3915, 0.4716797, 0.3915, -0.2633057, 0.3915, -0.6289673, 0.3915, 0.5591431
0.0139655, -0.0120851, 0.016875, -0.0070497, 0.405, 0.4719849, 0.405, -0.2634277, 0.405, -0.6287842, 0.405, 0.559021
0.014431, -0.0105745, 0.0174375, -0.0016785, 0.4185, 0.4719849, 0.4185, -0.2633667, 0.4185, -0.6287231, 0.4185, 0.559082
0.0148966, -0.0099031, 0.018, -0.0030213, 0.432, 0.4719238, 0.432, -0.2633057, 0.432, -0.6287842, 0.432, 0.559082
0.0153621, -0.0099031, 0.0185625, -0.011078, 0.4455, 0.4719238, 0.4455, -0.2632446, 0.4455, -0.6287842, 0.4455, 0.559082
0.0158276, -0.0102388, 0.019125, -0.0174563, 0.459, 0.472168, 0.459, -0.2633667, 0.459, -0.6286621, 0.459, 0.559021
0.0162931, -0.0119173, 0.0196875, -0.0201419, 0.4725, 0.4720459, 0.4725, -0.2633057, 0.4725, -0.6287231, 0.4725, 0.559082
0.0167586, -0.0115816, 0.02025, -0.0140993, 0.486, 0.4719849, 0.486, -0.2632446, 0.486, -0.6287231, 0.486, 0.5591431
0.0172241, -0.0109102, 0.0208125, -0.0073854, 0.4995, 0.4718628, 0.4995, -0.2631836, 0.4995, -0.6287842, 0.4995, 0.5592041
0.0176897, -0.0092317, 0.021375, -0.0003357, 0.513, 0.4717407, 0.513, -0.2631226, 0.513, -0.6287842, 0.513, 0.5593262
0.0181552, -0.0083925, 0.0219375, 0.0120851, 0.5265, 0.4716187, 0.5265, -0.2629395, 0.5265, -0.6289673, 0.5265, 0.5593262
0.0186207, -0.0078889, 0.0225, 0.0198062, 0.54, 0.4715576, 0.54, -0.2628784, 0.54, -0.6290283, 0.54, 0.5593262
0.0190862, -0.008896, 0.0230625, 0.0157778, 0.5535, 0.4713135, 0.5535, -0.2626343, 0.5535, -0.6291504, 0.5535, 0.5595093
0.0195517, -0.0085603, 0.023625, 0.011078, 0.567, 0.4712524, 0.567, -0.2625732, 0.567, -0.6292114, 0.567, 0.5595093
0.0200172, -0.0075532, 0.0241875, 0.0043641, 0.5805, 0.4710083, 0.5805, -0.2624512, 0.5805, -0.6293335, 0.5805, 0.5596313
0.0204828, -0.0068818, 0.02475, -0.0016785, 0.594, 0.4709473, 0.594, -0.2623901, 0.594, -0.6293945, 0.594, 0.5596924
0.0209483, -0.0057069, 0.0253125, -0.0043641, 0.6075, 0.4707642, 0.6075, -0.2622681, 0.6075, -0.6295166, 0.6075, 0.5596924
0.0214138, -0.0052033, 0.025875, -0.0151064, 0.621, 0.4705811, 0.621, -0.2620239, 0.621, -0.6296997, 0.621, 0.5597534
0.0218793, -0.0058747, 0.0264375, -0.0349126, 0.6345, 0.47052, 0.6345, -0.2619019, 0.6345, -0.6298218, 0.6345, 0.5597534
0.0223448, -0.0063783, 0.027, -0.0412909, 0.648, 0.4703979, 0.648, -0.2618408, 0.648, -0.6298828, 0.648, 0.5598145
0.0228103, -0.0052033, 0.0275625, -0.0342412, 0.6615, 0.4703369, 0.6615, -0.2617798, 0.6615, -0.6299438, 0.6615, 0.5598755
0.0232759, -0.0038605, 0.028125, -0.0234989, 0.675, 0.4702759, 0.675, -0.2616577, 0.675, -0.6300049, 0.675, 0.5598755
0.0237414, -0.0041962, 0.0286875, -0.0083925, 0.6885, 0.4700317, 0.6885, -0.2612915, 0.6885, -0.630249, 0.6885, 0.5599976
0.0242069, -0.0058747, 0.02925, 0.0208133, 0.702, 0.4699707, 0.702, -0.2611694, 0.702, -0.6303101, 0.702, 0.5600586
0.0246724, -0.0075532, 0.0298125, 0.056733, 0.7155, 0.4697876, 0.7155, -0.2611084, 0.7155, -0.6304932, 0.7155, 0.5600586
0.0251379, -0.0065461, 0.030375, 0.0822461, 0.729, 0.4697266, 0.729, -0.2610474, 0.729, -0.6305542, 0.729, 0.5599976
0.0256034, -0.0052033, 0.0309375, 0.0772107, 0.7425, 0.4696655, 0.7425, -0.2609863, 0.7425, -0.6306763, 0.7425, 0.5599976
0.026069, -0.0048676, 0.0315, 0.035584, 0.756, 0.4696045, 0.756, -0.2608643, 0.756, -0.6306763, 0.756, 0.5600586
0.0265345, -0.0050355, 0.0320625, -0.0265202, 0.7695, 0.4697266, 0.7695, -0.2609863, 0.7695, -0.6304932, 0.7695, 0.5600586
0.027, -0.0048676, 0.032625, -0.0815747, 0.783, 0.4697876, 0.783, -0.2611084, 0.783, -0.630249, 0.783, 0.5602417
0.0274655, -0.0062104, 0.0331875, -0.1151446, 0.7965, 0.4697876, 0.7965, -0.2609253, 0.7965, -0.6298218, 0.7965, 0.5608521
0.027931, -0.0068818, 0.03375, -0.1383078, 0.81, 0.4695435, 0.81, -0.260437, 0.81, -0.6298218, 0.81, 0.5612793
0.0283966, -0.0072175, 0.0343125, -0.1631495, 0.8235, 0.4703369, 0.8235, -0.2595215, 0.8235, -0.628479, 0.8235, 0.562561
0.0288621, -0.0070497, 0.034875, -0.1829557, 0.837, 0.4716187, 0.837, -0.2593384, 0.837, -0.6269531, 0.837, 0.5632324
0.0293276, -0.0057069, 0.0354375, -0.1470359, 0.8505, 0.4729004, 0.8505, -0.2588501, 0.8505, -0.6253662, 0.8505, 0.5641479
0.0297931, -0.0053712, 0.036, -0.0654612, 0.864, 0.4755859, 0.864, -0.2570801, 0.864, -0.6219482, 0.864, 0.5664673
0.0302586, -0.0052033, 0.0365625, 0.0157778, 0.8775, 0.4766846, 0.8775, -0.2556763, 0.8775, -0.6203613, 0.8775, 0.5679321
0.0307241, -0.0048676, 0.037125, 0.0543832, 0.891, 0.4785156, 0.891, -0.2525024, 0.891, -0.6173096, 0.891, 0.571106
0.0311897, -0.0038605, 0.0376875, 0.056733, 0.9045, 0.479126, 0.9045, -0.2503052, 0.9045, -0.6160889, 0.9045, 0.572876
0.0316552, -0.0036927, 0.03825, 0.0419623, 0.918, 0.4802856, 0.918, -0.248291, 0.918, -0.6144409, 0.918, 0.574585
0.0321207, -0.0041962, 0.0388125, 0.0171206, 0.9315, 0.4835815, 0.9315, -0.2445068, 0.9315, -0.6099854, 0.9315, 0.578125
0.0325862, -0.0035248, 0.039375, -0.0221561, 0.945, 0.4857788, 0.945, -0.2427979, 0.945, -0.6072388, 0.945, 0.579895
0.0330517, -0.0041962, 0.0399375, -0.0782177, 0.9585, 0.4907227, 0.9585, -0.2392578, 0.9585, -0.6013184, 0.9585, 0.583374
0.0335172, -0.0048676, 0.0405, -0.1312581, 0.972, 0.492981, 0.972, -0.2373047, 0.972, -0.5984497, 0.972, 0.5852051
0.0339828, -0.0058747, 0.0410625, -0.1591211, 0.9855, 0.4953003, 0.9855, -0.2352905, 0.9855, -0.59552, 0.9855, 0.5870361
0.0344483, -0.0063783, 0.041625, -0.1453574, 0.999, 0.4997559, 0.999, -0.2312012, 0.999, -0.5899048, 0.999, 0.5905762
0.0349138, -0.0087282, 0.0421875, -0.0970169, 1.0125, 0.5018311, 1.0125, -0.2290649, 1.0125, -0.5872192, 1.0125, 0.5922852
0.0353793, -0.0114137, 0.04275, -0.0493477, 1.026, 0.5040283, 1.026, -0.2269897, 1.026, -0.5844727, 1.026, 0.5939941
0.0358448, -0.0120851, 0.0433125, -0.0261845, 1.0395, 0.5095215, 1.0395, -0.2238159, 1.0395, -0.5776367, 1.0395, 0.597229
0.0363103, -0.0105745, 0.043875, -0.0231632, 1.053, 0.5119629, 1.053, -0.2219238, 1.053, -0.5744019, 1.053, 0.598877
0.0367759, -0.0102388, 0.0444375, -0.0241703, 1.0665, 0.5166626, 1.0665, -0.2174683, 1.0665, -0.5682373, 1.0665, 0.602356
0.0372414, -0.0119173, 0.045, -0.0248417, 1.08, 0.519165, 1.08, -0.2151489, 1.08, -0.5650024, 1.08, 0.604126
0.0377069, -0.0130922, 0.0455625, -0.027863, 1.0935, 0.5217285, 1.0935, -0.2129517, 1.0935, -0.5617065, 1.0935, 0.6057739
0.0381724, -0.0125887, 0.046125, -0.027863, 1.107, 0.5274048, 1.107, -0.2087402, 1.107, -0.5543823, 1.107, 0.6090698
0.0386379, -0.0109102, 0.0466875, -0.0258488, 1.1205, 0.5304565, 1.1205, -0.206604, 1.1205, -0.550354, 1.1205, 0.6107178
0.0391034, -0.0099031, 0.04725, -0.0261845, 1.134, 0.5369873, 1.134, -0.2018433, 1.134, -0.5419922, 1.134, 0.6141357
0.039569, -0.0107424, 0.0478125, -0.0248417, 1.1475, 0.5404053, 1.1475, -0.199585, 1.1475, -0.5374146, 1.1475, 0.6159058
0.0400345, -0.0119173, 0.048375, -0.0218204, 1.161, 0.5439453, 1.161, -0.1971436, 1.161, -0.5326538, 1.161, 0.6176758
0.0405, -0.0117494, 0.0489375, -0.0140993, 1.1745, 0.5510254, 1.1745, -0.1920776, 1.1745, -0.5231934, 1.1745, 0.6210938
0.0409655, -0.0105745, 0.0495, -0.0063783, 1.188, 0.5547485, 1.188, -0.1896973, 1.188, -0.5179443, 1.188, 0.6229248
0.041431, -0.0104067, 0.0500625, -0.0016785, 1.2015, 0.5628662, 1.2015, -0.1844482, 1.2015, -0.5061035, 1.2015, 0.6268921
0.0418966, -0.0102388, 0.050625, 0.0030213, 1.215, 0.5672607, 1.215, -0.1817017, 1.215, -0.4996338, 1.215, 0.6289673
0.0423621, -0.0102388, 0.0511875, 0.0070497, 1.2285, 0.5717163, 1.2285, -0.1785889, 1.2285, -0.492981, 1.2285, 0.6310425
0.0428276, -0.0109102, 0.05175, 0.0077211, 1.242, 0.5803223, 1.242, -0.171936, 1.242, -0.4797363, 1.242, 0.6352539
0.0432931, -0.0119173, 0.0523125, 0.0050355, 1.2555, 0.5846558, 1.2555, -0.168457, 1.2555, -0.4730225, 1.2555, 0.637207
0.0437586, -0.0125887, 0.052875, -0.0016785, 1.269, 0.5939941, 1.269, -0.1622925, 1.269, -0.4581299, 1.269, 0.6410522
0.0442241, -0.0115816, 0.0534375, -0.0117494, 1.2825, 0.5986938, 1.2825, -0.1592407, 1.2825, -0.4500732, 1.2825, 0.6431274
0.0446897, -0.0093996, 0.054, -0.0167849, 1.296, 0.6035156, 1.296, -0.1560669, 1.296, -0.4418945, 1.296, 0.6450806
0.0451552, -0.0092317, 0.0545625, -0.0164492, 1.3095, 0.6132202, 1.3095, -0.149292, 1.3095, -0.4244385, 1.3095, 0.649231
0.0456207, -0.0104067, 0.055125, -0.0164492, 1.323, 0.617981, 1.323, -0.1456299, 1.323, -0.4154663, 1.323, 0.6513672
0.0460862, -0.0112459, 0.0556875, -0.0191348, 1.3365, 0.6227417, 1.3365, -0.1417847, 1.3365, -0.40625, 1.3365, 0.6535034
0.0465517, -0.0112459, 0.05625, -0.017792, 1.35, 0.6323242, 1.35, -0.1340942, 1.35, -0.3864136, 1.35, 0.657959
0.0470172, -0.0109102, 0.0568125, -0.0154421, 1.3635, 0.637085, 1.3635, -0.130127, 1.3635, -0.3760376, 1.3635, 0.6601562
0.0474828, -0.0112459, 0.057375, -0.0137636, 1.377, 0.6466675, 1.377, -0.1229858, 1.377, -0.3540649, 1.377, 0.6643677
0.0479483, -0.0124208, 0.0579375, -0.0117494, 1.3905, 0.651123, 1.3905, -0.1193848, 1.3905, -0.3428345, 1.3905, 0.6665039
0.0484138, -0.0140993, 0.0585, -0.0154421, 1.404, 0.6552124, 1.404, -0.1154785, 1.404, -0.3317261, 1.404, 0.6688232
0.0488793, -0.0162814, 0.0590625, -0.0198062, 1.4175, 0.6628418, 1.4175, -0.1070557, 1.4175, -0.3096313, 1.4175, 0.6732788
0.0493448, -0.0162814, 0.059625, -0.0184634, 1.431, 0.6663818, 1.431, -0.1030884, 1.431, -0.2983398, 1.431, 0.6755371
0.0498103, -0.014435, 0.0601875, -0.0184634, 1.4445, 0.6730957, 1.4445, -0.0946045, 1.4445, -0.2752075, 1.4445, 0.6798706
0.0502759, -0.012253, 0.06075, -0.0164492, 1.458, 0.6760254, 1.458, -0.0899658, 1.458, -0.2637329, 1.458, 0.6821289
0.0507414, -0.0104067, 0.0613125, -0.0124208, 1.4715, 0.678833, 1.4715, -0.0852051, 1.4715, -0.2521362, 1.4715, 0.6843872
0.0512069, -0.0092317, 0.061875, -0.0157778, 1.485, 0.6831055, 1.485, -0.0736084, 1.485, -0.2301636, 1.485, 0.689209
0.0516724, -0.0105745, 0.0624375, -0.0191348, 1.4985, 0.6847534, 1.4985, -0.0668335, 1.4985, -0.2194824, 1.4985, 0.6917114
0.0521379, -0.012253, 0.063, -0.0224918, 1.512, 0.6873779, 1.512, -0.0525513, 1.512, -0.197998, 1.512, 0.6967773
0.0526034, -0.0117494, 0.0635625, -0.0251774, 1.5255, 0.6873779, 1.5255, -0.0440063, 1.5255, -0.1879883, 1.5255, 0.7001343
0.053069, -0.0115816, 0.064125, -0.0261845, 1.539, 0.6870728, 1.539, -0.0350342, 1.539, -0.1783447, 1.539, 0.7034912
0.0535345, -0.0109102, 0.0646875, -0.0292058, 1.5525, 0.6860352, 1.5525, -0.0165405, 1.5525, -0.1586304, 1.5525, 0.7098389
0.054, -0.0105745, 0.06525, -0.0298772, 1.566, 0.6851807, 1.566, -0.0071411, 1.566, -0.1486206, 1.566, 0.7130127
0.0544655, -0.0102388, 0.0658125, -0.0231632, 1.5795, 0.6841431, 1.5795, 0.0028076, 1.5795, -0.138855, 1.5795, 0.7160034
0.054931, -0.0102388, 0.066375, -0.0181277, 1.593, 0.6813965, 1.593, 0.0239868, 1.593, -0.1196899, 1.593, 0.7216797
0.0553966, -0.0109102, 0.0669375, -0.0151064, 1.6065, 0.6796265, 1.6065, 0.0348511, 1.6065, -0.1106567, 1.6065, 0.7243042
0.0558621, -0.0117494, 0.0675, -0.0070497, 1.62, 0.6755371, 1.62, 0.0581055, 1.62, -0.09375, 1.62, 0.7290039
0.0563276, -0.012253, 0.0680625, -0.0043641, 1.6335, 0.6734009, 1.6335, 0.0706177, 1.6335, -0.0853271, 1.6335, 0.730896
0.0567931, -0.0117494, 0.068625, -0.0137636, 1.647, 0.6710815, 1.647, 0.0826416, 1.647, -0.0767822, 1.647, 0.7327881
0.0572586, -0.012253, 0.0691875, -0.0271916, 1.6605, 0.6663818, 1.6605, 0.1065063, 1.6605, -0.0588989, 1.6605, 0.7355957
0.0577241, -0.0115816, 0.06975, -0.0382696, 1.674, 0.6638794, 1.674, 0.1190186, 1.674, -0.0499878, 1.674, 0.7366333
0.0581897, -0.0109102, 0.0703125, -0.0396124, 1.6875, 0.6585083, 1.6875, 0.1437378, 1.6875, -0.0315552, 1.6875, 0.7380371
0.0586552, -0.0115816, 0.070875, -0.0328985, 1.701, 0.6556396, 1.701, 0.1565552, 1.701, -0.022644, 1.701, 0.7383423
0.0591207, -0.0115816, 0.0714375, -0.0305486, 1.7145, 0.65271, 1.7145, 0.1703491, 1.7145, -0.0144653, 1.7145, 0.7380371
0.0595862, -0.0114137, 0.072, -0.0302129, 1.728, 0.6466064, 1.728, 0.1990356, 1.728, 0.0010986, 1.728, 0.7364502
0.0600517, -0.0119173, 0.0725625, -0.027863, 1.7415, 0.6434937, 1.7415, 0.2144165, 1.7415, 0.0079346, 1.7415, 0.7348022
0.0605172, -0.012253, 0.073125, -0.024506, 1.755, 0.6370239, 1.755, 0.2452393, 1.755, 0.0213623, 1.755, 0.7305298
0.0609828, -0.0109102, 0.0736875, -0.027863, 1.7685, 0.633728, 1.7685, 0.2606201, 1.7685, 0.0280151, 1.7685, 0.7277832
0.0614483, -0.008896, 0.07425, -0.0352483, 1.782, 0.6306152, 1.782, 0.2752075, 1.782, 0.0352783, 1.782, 0.7247925
0.0619138, -0.0095674, 0.0748125, -0.0426337, 1.7955, 0.6248169, 1.7955, 0.3058472, 1.7955, 0.0505371, 1.7955, 0.7166138
0.0623793, -0.0097353, 0.075375, -0.0533761, 1.809, 0.6219482, 1.809, 0.3200684, 1.809, 0.0588379, 1.809, 0.7122803
0.0628448, -0.0095674, 0.0759375, -0.0580758, 1.8225, 0.6155396, 1.8225, 0.3447876, 1.8225, 0.0794678, 1.8225, 0.7042236
0.0633103, -0.0104067, 0.0765, -0.0540475, 1.836, 0.6119385, 1.836, 0.3564453, 1.836, 0.0909424, 1.836, 0.7001343
0.0637759, -0.0117494, 0.0770625, -0.0473335, 1.8495, 0.6085815, 1.8495, 0.3687134, 1.8495, 0.1011963, 1.8495, 0.6953125
0.0642414, -0.0107424, 0.077625, -0.0372625, 1.863, 0.6012573, 1.863, 0.3915405, 1.863, 0.1221313, 1.863, 0.68573
0.0647069, -0.0087282, 0.0781875, -0.0298772, 1.8765, 0.5973511, 1.8765, 0.4016724, 1.8765, 0.1330566, 1.8765, 0.6812744
0.0651724, -0.008896, 0.07875, -0.027863, 1.89, 0.5927734, 1.89, 0.4106445, 1.89, 0.1445923, 1.89, 0.6775513
0.0656379, -0.0105745, 0.0793125, -0.0271916, 1.9035, 0.5836182, 1.9035, 0.4284058, 1.9035, 0.166748, 1.9035, 0.6693726
0.0661034, -0.0115816, 0.079875, -0.0281987, 1.917, 0.5787354, 1.917, 0.4365234, 1.917, 0.1776733, 1.917, 0.6655273
0.066569, -0.0102388, 0.0804375, -0.0258488, 1.9305, 0.5698242, 1.9305, 0.4528809, 1.9305, 0.1973267, 1.9305, 0.6566772
0.0670345, -0.0097353, 0.081, -0.0218204, 1.944, 0.5651855, 1.944, 0.4605713, 1.944, 0.2063599, 1.944, 0.6525879
0.0675, -0.0099031, 0.0815625, -0.0201419, 1.9575, 0.56073, 1.9575, 0.4679565, 1.9575, 0.2149048, 1.9575, 0.6483765
0.0679655, -0.0109102, 0.082125, -0.0204776, 1.971, 0.552063, 1.971, 0.4821777, 1.971, 0.2304077, 1.971, 0.6400146
0.068431, -0.0099031, 0.0826875, -0.0224918, 1.9845, 0.5477905, 1.9845, 0.4889526, 1.9845, 0.2373657, 1.9845, 0.6359863
0.0688966, -0.0082246, 0.08325, -0.024506, 1.998, 0.5440063, 1.998, 0.4949341, 1.998, 0.2437744, 1.998, 0.6322021
0.0693621, -0.0072175, 0.0838125, -0.0228275, 2.0115, 0.5370483, 2.0115, 0.505249, 2.0115, 0.2546387, 2.0115, 0.6256714
0.0698276, -0.0083925, 0.084375, -0.0208133, 2.025, 0.5338745, 2.025, 0.5097656, 2.025, 0.2590942, 2.025, 0.6229248
0.0702931, -0.0099031, 0.0849375, -0.0198062, 2.0385, 0.5278931, 2.0385, 0.5159302, 2.0385, 0.267395, 2.0385, 0.6193237
0.0707586, -0.0082246, 0.0855, -0.0174563, 2.052, 0.5256958, 2.052, 0.5184937, 2.052, 0.2703247, 2.052, 0.6177979
0.0712241, -0.0063783, 0.0860625, -0.0124208, 2.0655, 0.5232544, 2.0655, 0.5241699, 2.0655, 0.2718506, 2.0655, 0.6144409
0.0716897, -0.0072175, 0.086625, -0.0050355, 2.079, 0.5223389, 2.079, 0.5258179, 2.079, 0.2720337, 2.079, 0.6137695
0.0721552, -0.0095674, 0.0871875, 0.0010071, 2.0925, 0.5213013, 2.0925, 0.5266724, 2.0925, 0.2718506, 2.0925, 0.6139526
0.0726207, -0.0095674, 0.08775, -0.0070497, 2.106, 0.5192871, 2.106, 0.5258179, 2.106, 0.2714233, 2.106, 0.6165771
0.0730862, -0.0104067, 0.0883125, -0.0298772, 2.1195, 0.5185547, 2.1195, 0.524292, 2.1195, 0.2709961, 2.1195, 0.6186523
0.0735517, -0.010071, 0.088875, -0.0439765, 2.133, 0.5186157, 2.133, 0.5231323, 2.133, 0.2692871, 2.133, 0.6203613
0.0740172, -0.0085603, 0.0894375, -0.0359197, 2.1465, 0.519104, 2.1465, 0.5189819, 2.1465, 0.2631836, 2.1465, 0.6259766
0.0744828, -0.0075532, 0.09, -0.0228275, 2.16, 0.5211182, 2.16, 0.5168457, 2.16, 0.2576294, 2.16, 0.628479
0.0749483, -0.0075532, 0.0905625, -0.0151064, 2.1735, 0.526062, 2.1735, 0.512146, 2.1735, 0.2442017, 2.1735, 0.6335449
0.0754138, -0.0058747, 0.091125, 0.0010071, 2.187, 0.5293579, 2.187, 0.5097046, 2.187, 0.2364502, 2.187, 0.6356812
0.0758793, -0.0057069, 0.0916875, 0.0251774, 2.2005, 0.5328979, 2.2005, 0.506958, 2.2005, 0.2285156, 2.2005, 0.6378174
0.0763448, -0.0075532, 0.09225, 0.0399481, 2.214, 0.5396729, 2.214, 0.5010376, 2.214, 0.2136841, 2.214, 0.6419067
0.0768103, -0.0099031, 0.0928125, 0.0332341, 2.2275, 0.5432129, 2.2275, 0.4973755, 2.2275, 0.206665, 2.2275, 0.644104
0.0772759, -0.0105745, 0.093375, 0.006714, 2.241, 0.5507202, 2.241, 0.4899902, 2.241, 0.1929321, 2.241, 0.647644
0.0777414, -0.0097353, 0.0939375, -0.024506, 2.2545, 0.5542603, 2.2545, 0.4854126, 2.2545, 0.1864014, 2.2545, 0.6499023
0.0782069, -0.0085603, 0.0945, -0.0453193, 2.268, 0.5574951, 2.268, 0.4802856, 2.268, 0.1801758, 2.268, 0.652771
0.0786724, -0.0083925, 0.0950625, -0.0691539, 2.2815, 0.5636597, 2.2815, 0.468811, 2.2815, 0.1682129, 2.2815, 0.6589355
0.0791379, -0.0093996, 0.095625, -0.1060807, 2.295, 0.5668945, 2.295, 0.4633179, 2.295, 0.1619263, 2.295, 0.6616211
0.0796034, -0.0083925, 0.0961875, -0.1352865, 2.3085, 0.5731812, 2.3085, 0.4535522, 2.3085, 0.1483154, 2.3085, 0.6661377
0.080069, -0.0082246, 0.09675, -0.1309224, 2.322, 0.5761108, 2.322, 0.4483032, 2.322, 0.1419678, 2.322, 0.6685791
0.0805345, -0.0082246, 0.0973125, -0.0929885, 2.3355, 0.5788574, 2.3355, 0.4422607, 2.3355, 0.1362305, 2.3355, 0.6713867
0.081, -0.0072175, 0.097875, -0.0527047, 2.349, 0.585083, 2.349, 0.4326172, 2.349, 0.1223145, 2.349, 0.6749878
0.0814655, -0.0065461, 0.0984375, -0.0238346, 2.3625, 0.5878906, 2.3625, 0.4275513, 2.3625, 0.1160889, 2.3625, 0.6768799
0.081931, -0.0068818, 0.099, -0.0060426, 2.376, 0.5941162, 2.376, 0.4182739, 2.376, 0.1026001, 2.376, 0.6793823
0.0823966, -0.008896, 0.0995625, 0.0043641, 2.3895, 0.5973511, 2.3895, 0.4140015, 2.3895, 0.0952759, 2.3895, 0.6801758
0.0828621, -0.0099031, 0.100125, 0.010071, 2.403, 0.6000977, 2.403, 0.4083252, 2.403, 0.0892944, 2.403, 0.6820679
0.0833276, -0.0092317, 0.1006875, 0.0140993, 2.4165, 0.6049194, 2.4165, 0.3977661, 2.4165, 0.0767822, 2.4165, 0.6854858
0.0837931, -0.008896, 0.10125, 0.0154421, 2.43, 0.6071167, 2.43, 0.392395, 2.43, 0.0705566, 2.43, 0.6873779
0.0842586, -0.0099031, 0.1018125, 0.0104067, 2.4435, 0.6090698, 2.4435, 0.3868408, 2.4435, 0.064209, 2.4435, 0.6893921
0.0847241, -0.0109102, 0.102375, 0.0003357, 2.457, 0.6137695, 2.457, 0.3773804, 2.457, 0.0505371, 2.457, 0.6915894
0.0851897, -0.0078889, 0.1029375, -0.0137636, 2.4705, 0.6159058, 2.4705, 0.3729248, 2.4705, 0.043335, 2.4705, 0.692627
0.0856552, -0.0050355, 0.1035, -0.0271916, 2.484, 0.619873, 2.484, 0.3633423, 2.484, 0.0303345, 2.484, 0.6948853
0.0861207, -0.0062104, 0.1040625, -0.0412909, 2.4975, 0.621582, 2.4975, 0.3574829, 2.4975, 0.024353, 2.4975, 0.6965942
0.0865862, -0.0085603, 0.104625, -0.0617685, 2.511, 0.6234131, 2.511, 0.3528442, 2.511, 0.0177002, 2.511, 0.6975098
0.0870517, -0.0095674, 0.1051875, -0.0822461, 2.5245, 0.6272583, 2.5245, 0.3436279, 2.5245, 0.0037842, 2.5245, 0.6989136
0.0875172, -0.010071, 0.10575, -0.0916457, 2.538, 0.6292114, 2.538, 0.3389893, 2.538, -0.0037231, 2.538, 0.6994019
0.0879828, -0.0095674, 0.1063125, -0.0856031, 2.5515, 0.6332397, 2.5515, 0.3292236, 2.5515, -0.019104, 2.5515, 0.7001953
0.0884483, -0.0087282, 0.106875, -0.0674754, 2.565, 0.635437, 2.565, 0.3242798, 2.565, -0.0270996, 2.565, 0.7002563
0.0889138, -0.0090639, 0.1074375, -0.0476692, 2.5785, 0.6375122, 2.5785, 0.3184814, 2.5785, -0.03479, 2.5785, 0.7006836
0.0893793, -0.0090639, 0.108, -0.0369268, 2.592, 0.6416626, 2.592, 0.3062134, 2.592, -0.0499878, 2.592, 0.701416
0.0898448, -0.0085603, 0.1085625, -0.0359197, 2.6055, 0.6437988, 2.6055, 0.2998657, 2.6055, -0.0574341, 2.6055, 0.7016602
0.0903103, -0.0085603, 0.109125, -0.0412909, 2.619, 0.6480103, 2.619, 0.2838135, 2.619, -0.0693359, 2.619, 0.7033691
0.0907759, -0.0085603, 0.1096875, -0.0617685, 2.6325, 0.6502075, 2.6325, 0.2741089, 2.6325, -0.0741577, 2.6325, 0.7047119
0.0912414, -0.008896, 0.11025, -0.0755322, 2.646, 0.6524658, 2.646, 0.2648315, 2.646, -0.0789795, 2.646, 0.7056274
0.0917069, -0.0105745, 0.1108125, -0.066804, 2.6595, 0.6565552, 2.6595, 0.2501831, 2.6595, -0.0933228, 2.6595, 0.7054443
0.0921724, -0.0114137, 0.111375, -0.0439765, 2.673, 0.6584473, 2.673, 0.2416382, 2.673, -0.0998535, 2.673, 0.7057495
0.0926379, -0.0097353, 0.1119375, -0.0204776, 2.6865, 0.6602783, 2.6865, 0.2323608, 2.6865, -0.1060791, 2.6865, 0.7062378
0.0931034, -0.0102388, 0.1125, -0.0050355, 2.7, 0.6635742, 2.7, 0.2151489, 2.7, -0.1182251, 2.7, 0.706665
0.093569, -0.0112459, 0.1130625, -0.006714, 2.7135, 0.6647949, 2.7135, 0.2086182, 2.7135, -0.1255493, 2.7135, 0.7062378
0.0940345, -0.0104067, 0.113625, -0.0130922, 2.727, 0.6669312, 2.727, 0.1940918, 2.727, -0.140625, 2.727, 0.7055664
0.0945, -0.0075532, 0.1141875, -0.017792, 2.7405, 0.6679688, 2.7405, 0.1867065, 2.7405, -0.1478882, 2.7405, 0.7050781
0.0949655, -0.0068818, 0.11475, -0.0191348, 2.754, 0.6690063, 2.754, 0.1795044, 2.754, -0.1554565, 2.754, 0.7042847
0.095431, -0.0092317, 0.1153125, -0.0201419, 2.7675, 0.6708374, 2.7675, 0.1627808, 2.7675, -0.168335, 2.7675, 0.7036743
0.0958966, -0.0115816, 0.115875, -0.0140993, 2.781, 0.6715698, 2.781, 0.1548462, 2.781, -0.1743774, 2.781, 0.7033081
0.0963621, -0.0119173, 0.1164375, -0.003357, 2.7945, 0.6726685, 2.7945, 0.1420288, 2.7945, -0.1886597, 2.7945, 0.7012329
0.0968276, -0.0119173, 0.117, 0.0060426, 2.808, 0.6721191, 2.808, 0.1359863, 2.808, -0.1958008, 2.808, 0.7009888
0.0972931, -0.0124208, 0.1175625, 0.0201419, 2.8215, 0.6713867, 2.8215, 0.1289673, 2.8215, -0.2023315, 2.8215, 0.7011719
0.0977586, -0.0117494, 0.118125, 0.0463264, 2.835, 0.6712036, 2.835, 0.114624, 2.835, -0.2157593, 2.835, 0.6998291
0.0982241, -0.0092317, 0.1186875, 0.0785534, 2.8485, 0.6709595, 2.8485, 0.1082153, 2.8485, -0.2224121, 2.8485, 0.6989746
0.0986897, -0.0082246, 0.11925, 0.0990311, 2.862, 0.668396, 2.862, 0.0970459, 2.862, -0.2368164, 2.862, 0.6983643
0.0991552, -0.0095674, 0.1198125, 0.0933242, 2.8755, 0.6671753, 2.8755, 0.0909424, 2.8755, -0.2435913, 2.8755, 0.6980591
0.0996207, -0.008896, 0.120375, 0.0674754, 2.889, 0.6657104, 2.889, 0.085083, 2.889, -0.2504272, 2.889, 0.6977539
0.1000862, -0.008896, 0.1209375, 0.0318914, 2.9025, 0.663269, 2.9025, 0.0714111, 2.9025, -0.2623291, 2.9025, 0.6972046
0.1005517, -0.0107424, 0.1215, -0.0154421, 2.916, 0.6619873, 2.916, 0.0648193, 2.916, -0.2682495, 2.916, 0.6968994
0.1010172, -0.0125887, 0.1220625, -0.0708324, 2.9295, 0.6601562, 2.9295, 0.0593262, 2.9295, -0.2750854, 2.9295, 0.6964111
0.1014828, -0.0124208, 0.122625, -0.1279011, 2.943, 0.6564331, 2.943, 0.0504761, 2.943, -0.2889404, 2.943, 0.6950684
0.1019483, -0.0112459, 0.1231875, -0.1668421, 2.9565, 0.6546631, 2.9565, 0.0454712, 2.9565, -0.2950439, 2.9565, 0.694519
0.1024138, -0.0105745, 0.12375, -0.1688563, 2.97, 0.6513672, 2.97, 0.0343018, 2.97, -0.3067627, 2.97, 0.6931763
0.1028793, -0.0109102, 0.1243125, -0.1272297, 2.9835, 0.6495972, 2.9835, 0.0296631, 2.9835, -0.3134155, 2.9835, 0.6920166
0.1033448, -0.0114137, 0.124875, -0.0664683, 2.997, 0.6474609, 2.997, 0.0255737, 2.997, -0.3208008, 2.997, 0.6908569
0.1038103, -0.0119173, 0.1254375, -0.0265202, 3.0105, 0.6439209, 3.0105, 0.015625, 3.0105, -0.3334961, 3.0105, 0.6884155
0.1042759, -0.0115816, 0.126, -0.021149, 3.024, 0.6425171, 3.024, 0.0097046, 3.024, -0.338623, 3.024, 0.6873169
0.1047414, -0.0115816, 0.1265625, -0.0315557, 3.0375, 0.6397705, 3.0375, -0.0012817, 3.0375, -0.3483887, 3.0375, 0.6850586
0.1052069, -0.0112459, 0.127125, -0.0342412, 3.051, 0.6381836, 3.051, -0.0060425, 3.051, -0.3538818, 3.051, 0.6837158
0.1056724, -0.0105745, 0.1276875, -0.03122, 3.0645, 0.6364746, 3.0645, -0.0103149, 3.0645, -0.3595581, 3.0645, 0.682251
0.1061379, -0.0105745, 0.12825, -0.03122, 3.078, 0.6334839, 3.078, -0.0196533, 3.078, -0.3701172, 3.078, 0.6791992
0.1066034, -0.0092317, 0.1288125, -0.0298772, 3.0915, 0.6324463, 3.0915, -0.0253906, 3.0915, -0.3745117, 3.0915, 0.6776123
0.107069, -0.0078889, 0.129375, -0.0224918, 3.105, 0.6311646, 3.105, -0.0305176, 3.105, -0.3793335, 3.105, 0.6759033
0.1075345, -0.0097353, 0.1299375, -0.0070497, 3.1185, 0.6286011, 3.1185, -0.0403442, 3.1185, -0.388855, 3.1185, 0.6723022
0.108, -0.0130922, 0.1305, 0.0130922, 3.132, 0.6272583, 3.132, -0.0452271, 3.132, -0.3935547, 3.132, 0.6705322
0.1084655, -0.0149386, 0.1310625, 0.0325628, 3.1455, 0.6246338, 3.1455, -0.0550537, 3.1455, -0.40271, 3.1455, 0.6668091
0.108931, -0.0149386, 0.131625, 0.0386053, 3.159, 0.623291, 3.159, -0.0598755, 3.159, -0.4074097, 3.159, 0.6647949
0.1093966, -0.014435, 0.1321875, 0.0171206, 3.1725, 0.6204224, 3.1725, -0.0698242, 3.1725, -0.4168091, 3.1725, 0.6606445
0.1098621, -0.0132601, 0.13275, -0.0097353, 3.186, 0.6191406, 3.186, -0.0750122, 3.186, -0.4208984, 3.186, 0.6586914
0.1103276, -0.0137636, 0.1333125, -0.0204776, 3.1995, 0.6178589, 3.1995, -0.0801392, 3.1995, -0.4248657, 3.1995, 0.6567383
0.1107931, -0.0146029, 0.133875, -0.024506, 3.213, 0.6153564, 3.213, -0.0901489, 3.213, -0.4324341, 3.213, 0.652832
0.1112586, -0.0129244, 0.1344375, -0.0288701, 3.2265, 0.6140137, 3.2265, -0.0946655, 3.2265, -0.4363403, 3.2265, 0.6508789
0.1117241, -0.012253, 0.135, -0.0339055, 3.24, 0.6124268, 3.24, -0.0986938, 3.24, -0.4407349, 3.24, 0.6488037
0.1121897, -0.0129244, 0.1355625, -0.0402838, 3.2535, 0.609375, 3.2535, -0.1069946, 3.2535, -0.4491577, 3.2535, 0.6445923
0.1126552, -0.0127565, 0.136125, -0.0433051, 3.267, 0.6082153, 3.267, -0.1120605, 3.267, -0.4522705, 3.267, 0.6426392
0.1131207, -0.0119173, 0.1366875, -0.0453193, 3.2805, 0.6056519, 3.2805, -0.1211548, 3.2805, -0.4579468, 3.2805, 0.6393433
0.1135862, -0.0105745, 0.13725, -0.042298, 3.294, 0.6043701, 3.294, -0.1248169, 3.294, -0.4609985, 3.294, 0.6376953
0.1140517, -0.0097353, 0.1378125, -0.0365911, 3.3075, 0.6030273, 3.3075, -0.1281738, 3.3075, -0.4643555, 3.3075, 0.6358643
0.1145172, -0.0112459, 0.138375, -0.0325628, 3.321, 0.6003418, 3.321, -0.135437, 3.321, -0.4708252, 3.321, 0.6321411
0.1149828, -0.0115816, 0.1389375, -0.0265202, 3.3345, 0.5990601, 3.3345, -0.1394653, 3.3345, -0.4737549, 3.3345, 0.630249
0.1154483, -0.0092317, 0.1395, -0.0194705, 3.348, 0.5962524, 3.348, -0.1470337, 3.348, -0.4802246, 3.348, 0.6262817
0.1159138, -0.0077211, 0.1400625, -0.0191348, 3.3615, 0.5947876, 3.3615, -0.1506958, 3.3615, -0.4834595, 3.3615, 0.6243286
0.1163793, -0.0075532, 0.140625, -0.021149, 3.375, 0.5933228, 3.375, -0.1542969, 3.375, -0.4865723, 3.375, 0.6223755
0.1168448, -0.0083925, 0.1411875, -0.0268559, 3.3885, 0.5895996, 3.3885, -0.161438, 3.3885, -0.4935303, 3.3885, 0.6186523
0.1173103, -0.0085603, 0.14175, -0.03122, 3.402, 0.5877686, 3.402, -0.1651001, 3.402, -0.4968262, 3.402, 0.6167603
0.1177759, -0.0075532, 0.1423125, -0.0332341, 3.4155, 0.5842896, 3.4155, -0.1726685, 3.4155, -0.5031738, 3.4155, 0.612854
0.1182414, -0.0065461, 0.142875, -0.0365911, 3.429, 0.5824585, 3.429, -0.1762695, 3.429, -0.5065308, 3.429, 0.6108398
0.1187069, -0.0063783, 0.1434375, -0.0339055, 3.4425, 0.5809326, 3.4425, -0.1801147, 3.4425, -0.5093384, 3.4425, 0.6088257
0.1191724, -0.0065461, 0.144, -0.024506, 3.456, 0.5776978, 3.456, -0.1877441, 3.456, -0.5148315, 3.456, 0.6049805
0.1196379, -0.0070497, 0.1445625, -0.0104067, 3.4695, 0.5756226, 3.4695, -0.190918, 3.4695, -0.5180054, 3.4695, 0.6032104
0.1201034, -0.0082246, 0.145125, 0.0006714, 3.483, 0.571167, 3.483, -0.1965332, 3.483, -0.5247803, 3.483, 0.5997925
0.120569, -0.0085603, 0.1456875, -0.0020142, 3.4965, 0.5690918, 3.4965, -0.1997681, 3.4965, -0.527771, 3.4965, 0.5980225
0.1210345, -0.0085603, 0.14625, -0.0097353, 3.51, 0.5672607, 3.51, -0.203186, 3.51, -0.5304565, 3.51, 0.5963135
0.1215, -0.0068818, 0.1468125, -0.0140993, 3.5235, 0.5630493, 3.5235, -0.2094116, 3.5235, -0.5365601, 3.5235, 0.5926514
0.1219655, -0.0048676, 0.147375, -0.0228275, 3.537, 0.5609741, 3.537, -0.2126465, 3.537, -0.5394897, 3.537, 0.5907593
0.122431, -0.0035248, 0.1479375, -0.0359197, 3.5505, 0.5587769, 3.5505, -0.2158813, 3.5505, -0.5425415, 3.5505, 0.5889282
0.1228966, -0.0035248, 0.1485, -0.0433051, 3.564, 0.5539551, 3.564, -0.22229, 3.564, -0.5488892, 3.564, 0.585144
0.1233621, -0.005539, 0.1490625, -0.0469978, 3.5775, 0.5512085, 3.5775, -0.2253418, 3.5775, -0.5524292, 3.5775, 0.583252
0.1238276, -0.0062104, 0.149625, -0.0500191, 3.591, 0.5463867, 3.591, -0.2319946, 3.591, -0.5587769, 3.591, 0.5791626
0.1242931, -0.0062104, 0.1501875, -0.0520333, 3.6045, 0.5440063, 3.6045, -0.2354126, 3.6045, -0.5618896, 3.6045, 0.5769653
0.1247586, -0.0057069, 0.15075, -0.0480049, 3.618, 0.5413818, 3.618, -0.2387085, 3.618, -0.5651245, 3.618, 0.5749512
0.1252241, -0.0048676, 0.1513125, -0.0406195, 3.6315, 0.5368042, 3.6315, -0.2456055, 3.6315, -0.5710449, 3.6315, 0.5704956
0.1256897, -0.0062104, 0.151875, -0.0342412, 3.645, 0.5343628, 3.645, -0.2492676, 3.645, -0.5738525, 3.645, 0.5682983
0.1261552, -0.0085603, 0.1524375, -0.0265202, 3.6585, 0.5301514, 3.6585, -0.256897, 3.6585, -0.5789185, 3.6585, 0.5637207
0.1266207, -0.0102388, 0.153, -0.0208133, 3.672, 0.5281982, 3.672, -0.2609253, 3.672, -0.5812378, 3.672, 0.5613403
0.1270862, -0.0112459, 0.1535625, -0.0181277, 3.6855, 0.5267334, 3.6855, -0.2651978, 3.6855, -0.5830688, 3.6855, 0.5587769
0.1275517, -0.011078, 0.154125, -0.0137636, 3.699, 0.5233154, 3.699, -0.2728882, 3.699, -0.5869751, 3.699, 0.5541382
0.1280172, -0.0095674, 0.1546875, -0.0070497, 3.7125, 0.5211182, 3.7125, -0.2756958, 3.7125, -0.5893555, 3.7125, 0.5523071
0.1284828, -0.0077211, 0.15525, -0.0057069, 3.726, 0.5153809, 3.726, -0.2791748, 3.726, -0.5953979, 3.726, 0.5494995
0.1289483, -0.0075532, 0.1558125, -0.0090639, 3.7395, 0.512085, 3.7395, -0.2800293, 3.7395, -0.5986328, 3.7395, 0.548645
0.1294138, -0.0092317, 0.156375, -0.0130922, 3.753, 0.5088501, 3.753, -0.2806396, 3.753, -0.6016846, 3.753, 0.5479736
0.1298793, -0.0104067, 0.1569375, -0.0117494, 3.7665, 0.503418, 3.7665, -0.2818604, 3.7665, -0.6068726, 3.7665, 0.5466919
0.1303448, -0.012253, 0.1575, -0.011078, 3.78, 0.5010986, 3.78, -0.2823486, 3.78, -0.6090698, 3.78, 0.5460205
0.1308103, -0.0119173, 0.1580625, -0.017792, 3.7935, 0.4990234, 3.7935, -0.282959, 3.7935, -0.6110229, 3.7935, 0.5454712
0.1312759, -0.0099031, 0.158625, -0.027863, 3.807, 0.4953613, 3.807, -0.2842407, 3.807, -0.6143799, 3.807, 0.5443115
0.1317414, -0.0099031, 0.1591875, -0.0379339, 3.8205, 0.4933472, 3.8205, -0.2846069, 3.8205, -0.6161499, 3.8205, 0.5440063
0.1322069, -0.0102388, 0.15975, -0.0436408, 3.834, 0.4904175, 3.834, -0.2859497, 3.834, -0.6189575, 3.834, 0.5427856
0.1326724, -0.0105745, 0.1603125, -0.0473335, 3.8475, 0.4888916, 3.8475, -0.2866821, 3.8475, -0.6201172, 3.8475, 0.5424194
0.1331379, -0.0104067, 0.160875, -0.0553902, 3.861, 0.4869995, 3.861, -0.2871704, 3.861, -0.621582, 3.861, 0.5422363
0.1336034, -0.0092317, 0.1614375, -0.0621042, 3.8745, 0.4836426, 3.8745, -0.2876587, 3.8745, -0.6242065, 3.8745, 0.5419922
0.134069, -0.0092317, 0.162, -0.06009, 3.888, 0.4817505, 3.888, -0.2874146, 3.888, -0.6256104, 3.888, 0.5421143
0.1345345, -0.0078889, 0.1625625, -0.0527047, 3.9015, 0.4799805, 3.9015, -0.2877808, 3.9015, -0.6271973, 3.9015, 0.541687
0.135, -0.0068818, 0.163125, -0.0406195, 3.915, 0.4797363, 3.915, -0.2884521, 3.915, -0.6273804, 3.915, 0.5413208
0.1354655, -0.0073854, 0.1636875, -0.0184634, 3.9285, 0.4796143, 3.9285, -0.2891235, 3.9285, -0.6275024, 3.9285, 0.5409546
0.135931, -0.0077211, 0.16425, 0.0083925, 3.942, 0.4788208, 3.942, -0.2901001, 3.942, -0.6280518, 3.942, 0.5404663
0.1363966, -0.008896, 0.1648125, 0.0265202, 3.9555, 0.4782715, 3.9555, -0.2901611, 3.9555, -0.6286011, 3.9555, 0.5402222
0.1368621, -0.0097353, 0.165375, 0.0224918, 3.969, 0.4776611, 3.969, -0.2905884, 3.969, -0.6293335, 3.969, 0.5397339
0.1373276, -0.0095674, 0.1659375, -0.0093996, 3.9825, 0.4776001, 3.9825, -0.2909546, 3.9825, -0.6293945, 3.9825, 0.5395508
0.1377931, -0.011078, 0.1665, -0.0466621, 3.996, 0.4776001, 3.996, -0.2912598, 3.996, -0.6293945, 3.996, 0.5393066
0.1382586, -0.0125887, 0.1670625, -0.0580758, 4.0095, 0.4779663, 4.0095, -0.291748, 4.0095, -0.6290894, 4.0095, 0.5391235
0.1387241, -0.0132601, 0.167625, -0.0419623, 4.023, 0.4785156, 4.023, -0.2920532, 4.023, -0.6287231, 4.023, 0.5389404
0.1391897, -0.0132601, 0.1681875, -0.0258488, 4.0365, 0.4788208, 4.0365, -0.2922363, 4.0365, -0.628418, 4.0365, 0.5388794
0.1396552, -0.0135958, 0.16875, -0.0218204, 4.05, 0.4795532, 4.05, -0.2924805, 4.05, -0.6276855, 4.05, 0.5389404
0.1401207, -0.0134279, 0.1693125, -0.0218204, 4.0635, 0.4797974, 4.0635, -0.2921143, 4.0635, -0.6274414, 4.0635, 0.5392456
0.1405862, -0.0119173, 0.169875, -0.024506, 4.077, 0.4810791, 4.077, -0.2909546, 4.077, -0.6265259, 4.077, 0.5397949
0.1410517, -0.0095674, 0.1704375, -0.0234989, 4.0905, 0.4819946, 4.0905, -0.2902222, 4.0905, -0.6256714, 4.0905, 0.5403442
0.1415172, -0.0082246, 0.171, -0.017792, 4.104, 0.4832153, 4.104, -0.2895508, 4.104, -0.6245117, 4.104, 0.5409546
0.1419828, -0.0085603, 0.1715625, -0.0191348, 4.1175, 0.4864502, 4.1175, -0.288208, 4.1175, -0.6216431, 4.1175, 0.5421143
0.1424483, -0.0097353, 0.172125, -0.0258488, 4.131, 0.4882202, 4.131, -0.2870483, 4.131, -0.6201782, 4.131, 0.5427856
0.1429138, -0.0107424, 0.1726875, -0.0298772, 4.1445, 0.4924927, 4.1445, -0.28479, 4.1445, -0.6166382, 4.1445, 0.5441895
0.1433793, -0.012253, 0.17325, -0.0305486, 4.158, 0.4945679, 4.158, -0.2832031, 4.158, -0.614624, 4.158, 0.5453491
0.1438448, -0.0129244, 0.1738125, -0.0345769, 4.1715, 0.4968872, 4.1715, -0.2817993, 4.1715, -0.6124878, 4.1715, 0.5463867
0.1443103, -0.0112459, 0.174375, -0.0396124, 4.185, 0.5029907, 4.185, -0.2782593, 4.185, -0.6070557, 4.185, 0.5487061
0.1447759, -0.0095674, 0.1749375, -0.0459907, 4.1985, 0.5066528, 4.1985, -0.276062, 4.1985, -0.6038818, 4.1985, 0.5499268
0.1452414, -0.0102388, 0.1755, -0.0476692, 4.212, 0.515625, 4.212, -0.2713623, 4.212, -0.5957031, 4.212, 0.5527954
0.1457069, -0.012253, 0.1760625, -0.0459907, 4.2255, 0.5215454, 4.2255, -0.2695312, 4.2255, -0.5900879, 4.2255, 0.5541992
0.1461724, -0.0125887, 0.176625, -0.0409552, 4.239, 0.5269775, 4.239, -0.2672729, 4.239, -0.5845947, 4.239, 0.5559692
0.1466379, -0.0129244, 0.1771875, -0.0379339, 4.2525, 0.5372314, 4.2525, -0.2615356, 4.2525, -0.5740967, 4.2525, 0.5598145
0.1471034, -0.0132601, 0.17775, -0.0298772, 4.266, 0.5424194, 4.266, -0.2584839, 4.266, -0.5686646, 4.266, 0.5617676
0.147569, -0.0119173, 0.1783125, -0.0224918, 4.2795, 0.5535278, 4.2795, -0.2525635, 4.2795, -0.5566406, 4.2795, 0.5656738
0.1480345, -0.0115816, 0.178875, -0.0198062, 4.293, 0.5593262, 4.293, -0.2496948, 4.293, -0.5501709, 4.293, 0.5675659
0.1485, -0.0112459, 0.1794375, -0.0191348, 4.3065, 0.5654907, 4.3065, -0.2470703, 4.3065, -0.5430908, 4.3065, 0.569397
0.1489655, -0.0124208, 0.18, -0.0224918, 4.32, 0.5791626, 4.32, -0.2416992, 4.32, -0.5274658, 4.32, 0.5726929
0.149431, -0.0112459, 0.1805625, -0.0271916, 4.3335, 0.5864868, 4.3335, -0.2388916, 4.3335, -0.5186157, 4.3335, 0.5744629
0.1498966, -0.0092317, 0.181125, -0.0275273, 4.347, 0.5939941, 4.347, -0.2357788, 4.347, -0.5095215, 4.347, 0.5761719
0.1503621, -0.0093996, 0.1816875, -0.0285344, 4.3605, 0.6090088, 4.3605, -0.2286377, 4.3605, -0.4908447, 4.3605, 0.5795898
0.1508276, -0.0102388, 0.18225, -0.027863, 4.374, 0.616333, 4.374, -0.2246704, 4.374, -0.4813232, 4.374, 0.5813599
0.1512931, -0.0095674, 0.1828125, -0.0228275, 4.3875, 0.6304321, 4.3875, -0.2157593, 4.3875, -0.4625244, 4.3875, 0.5848389
0.1517586, -0.0085603, 0.183375, -0.0164492, 4.401, 0.6374512, 4.401, -0.2111206, 4.401, -0.4527588, 4.401, 0.5866089
0.1522241, -0.0077211, 0.1839375, -0.0036927, 4.4145, 0.6444092, 4.4145, -0.2063599, 4.4145, -0.442627, 4.4145, 0.5884399
0.1526897, -0.0083925, 0.1845, 0.0204776, 4.428, 0.6577759, 4.428, -0.1956177, 4.428, -0.421875, 4.428, 0.5925293
0.1531552, -0.0105745, 0.1850625, 0.0480049, 4.4415, 0.6645508, 4.4415, -0.1900024, 4.4415, -0.4107666, 4.4415, 0.5945435
0.1536207, -0.0119173, 0.185625, 0.0553902, 4.455, 0.6778564, 4.455, -0.1779175, 4.455, -0.3873901, 4.455, 0.5990601
0.1540862, -0.0112459, 0.1861875, 0.0352483, 4.4685, 0.6843262, 4.4685, -0.1714478, 4.4685, -0.3754272, 4.4685, 0.6011353
0.1545517, -0.010071, 0.18675, -0.0020142, 4.482, 0.6904297, 4.482, -0.1644897, 4.482, -0.3636475, 4.482, 0.6033325
0.1550172, -0.0095674, 0.1873125, -0.0342412, 4.4955, 0.7023926, 4.4955, -0.1500244, 4.4955, -0.3382568, 4.4955, 0.6080322
0.1554828, -0.0095674, 0.187875, -0.0584115, 4.509, 0.7080078, 4.509, -0.1420898, 4.509, -0.3253784, 4.509, 0.6104736
0.1559483, -0.0099031, 0.1884375, -0.0829175, 4.5225, 0.7182617, 4.5225, -0.1247559, 4.5225, -0.2997437, 4.5225, 0.6154175
0.1564138, -0.0104067, 0.189, -0.109102, 4.536, 0.7230835, 4.536, -0.1158447, 4.536, -0.286499, 4.536, 0.6177979
0.1568793, -0.0102388, 0.1895625, -0.1285725, 4.5495, 0.727478, 4.5495, -0.1063843, 4.5495, -0.2735596, 4.5495, 0.6201782
0.1573448, -0.0093996, 0.190125, -0.1188373, 4.563, 0.7349854, 4.563, -0.0863037, 4.563, -0.24823, 4.563, 0.625061
0.1578103, -0.0082246, 0.1906875, -0.0782177, 4.5765, 0.7381592, 4.5765, -0.0756226, 4.5765, -0.2356567, 4.5765, 0.6275635
0.1582759, -0.0070497, 0.19125, -0.0325628, 4.59, 0.7407837, 4.59, -0.0639648, 4.59, -0.2236938, 4.59, 0.630188
0.1587414, -0.0063783, 0.1918125, -0.0050355, 4.6035, 0.7453003, 4.6035, -0.0404663, 4.6035, -0.1991577, 4.6035, 0.6350098
0.1592069, -0.0052033, 0.192375, 0.0030213, 4.617, 0.7474365, 4.617, -0.0290527, 4.617, -0.1861572, 4.617, 0.6370239
0.1596724, -0.0062104, 0.1929375, 0.0010071, 4.6305, 0.7502441, 4.6305, -0.0061646, 4.6305, -0.1594238, 4.6305, 0.6416016
0.1601379, -0.0078889, 0.1935, -0.0070497, 4.644, 0.7511597, 4.644, 0.0055542, 4.644, -0.145874, 4.644, 0.6437988
0.1606034, -0.0068818, 0.1940625, -0.0117494, 4.6575, 0.751709, 4.6575, 0.0171509, 4.6575, -0.1322021, 4.6575, 0.645874
0.161069, -0.0048676, 0.194625, -0.0087282, 4.671, 0.7515869, 4.671, 0.0392456, 4.671, -0.1048584, 4.671, 0.6500854
0.1615345, -0.0035248, 0.1951875, -0.0013428, 4.6845, 0.7508545, 4.6845, 0.0507812, 4.6845, -0.09198, 4.6845, 0.6520996
0.162, -0.0035248, 0.19575, 0.0130922, 4.698, 0.7483521, 4.698, 0.0744019, 4.698, -0.0668335, 4.698, 0.6557007
0.1624655, -0.0048676, 0.1963125, 0.0292058, 4.7115, 0.7467651, 4.7115, 0.0866699, 4.7115, -0.0546875, 4.7115, 0.6571655
0.162931, -0.0072175, 0.196875, 0.0382696, 4.725, 0.744812, 4.725, 0.0990601, 4.725, -0.0430908, 4.725, 0.6584473
0.1633966, -0.0072175, 0.1974375, 0.0399481, 4.7385, 0.7409058, 4.7385, 0.1230469, 4.7385, -0.0202637, 4.7385, 0.6599121
0.1638621, -0.0072175, 0.198, 0.0315557, 4.752, 0.7387695, 4.752, 0.1348267, 4.752, -0.0090942, 4.752, 0.6602173
0.1643276, -0.0075532, 0.1985625, 0.0140993, 4.7655, 0.7334595, 4.7655, 0.1582642, 4.7655, 0.0136108, 4.7655, 0.6609497
0.1647931, -0.0082246, 0.199125, -0.0097353, 4.779, 0.7307739, 4.779, 0.1702881, 4.779, 0.0245972, 4.779, 0.6605835
0.1652586, -0.0068818, 0.1996875, -0.0412909, 4.7925, 0.7279053, 4.7925, 0.1828003, 4.7925, 0.0346069, 4.7925, 0.6599731
0.1657241, -0.0058747, 0.20025, -0.070161, 4.806, 0.7213745, 4.806, 0.2072144, 4.806, 0.0541382, 4.806, 0.6585693
0.1661897, -0.0068818, 0.2008125, -0.0976883, 4.8195, 0.7180176, 4.8195, 0.2193604, 4.8195, 0.0643311, 4.8195, 0.6574097
0.1666552, -0.0083925, 0.201375, -0.1319295, 4.833, 0.7108765, 4.833, 0.2437744, 4.833, 0.0834961, 4.833, 0.6544189
0.1671207, -0.0092317, 0.2019375, -0.1534142, 4.8465, 0.7070923, 4.8465, 0.2559814, 4.8465, 0.0927734, 4.8465, 0.6525879
0.1675862, -0.0099031, 0.2025, -0.1453574, 4.86, 0.703064, 4.86, 0.2681885, 4.86, 0.1017456, 4.86, 0.6506958
0.1680517, -0.0099031, 0.2030625, -0.1097734, 4.8735, 0.6951294, 4.8735, 0.2931519, 4.8735, 0.1183472, 4.8735, 0.6456299
0.1685172, -0.0090639, 0.203625, -0.0594186, 4.887, 0.6906738, 4.887, 0.305603, 4.887, 0.12677, 4.887, 0.6430054
0.1689828, -0.0078889, 0.2041875, -0.0060426, 4.9005, 0.6869507, 4.9005, 0.3186035, 4.9005, 0.1334229, 4.9005, 0.6393433
0.1694483, -0.0068818, 0.20475, 0.0379339, 4.914, 0.6782227, 4.914, 0.3429565, 4.914, 0.1487427, 4.914, 0.6326294
0.1699138, -0.0068818, 0.2053125, 0.0547189, 4.9275, 0.6741943, 4.9275, 0.3555298, 4.9275, 0.1555176, 4.9275, 0.628418
0.1703793, -0.008896, 0.205875, 0.0372625, 4.941, 0.6668701, 4.941, 0.3814087, 4.941, 0.1670532, 4.941, 0.617981
0.1708448, -0.0105745, 0.2064375, 0.0104067, 4.9545, 0.663269, 4.9545, 0.3947144, 4.9545, 0.1719971, 4.9545, 0.6121216
0.1713103, -0.0105745, 0.207, -0.0083925, 4.968, 0.6599731, 4.968, 0.4067383, 4.968, 0.1777954, 4.968, 0.6061401
0.1717759, -0.011078, 0.2075625, -0.0154421, 4.9815, 0.6516724, 4.9815, 0.4276123, 4.9815, 0.1915283, 4.9815, 0.5964966
0.1722414, -0.011078, 0.208125, -0.0164492, 4.995, 0.6472168, 4.995, 0.4372559, 4.995, 0.1984863, 4.995, 0.592041
0.1727069, -0.0090639, 0.2086875, -0.017792, 5.0085, 0.6374512, 5.0085, 0.4539185, 5.0085, 0.2130737, 5.0085, 0.585022
0.1731724, -0.006714, 0.20925, -0.0151064, 5.022, 0.6322021, 5.022, 0.4610596, 5.022, 0.2202759, 5.022, 0.5824585
0.1736379, -0.0062104, 0.2098125, -0.014435, 5.0355, 0.6270752, 5.0355, 0.4677734, 5.0355, 0.2267456, 5.0355, 0.5801392
0.1741034, -0.0065461, 0.210375, -0.0137636, 5.049, 0.6171265, 5.049, 0.4794922, 5.049, 0.2376709, 5.049, 0.5767822
0.174569, -0.0058747, 0.2109375, -0.0043641, 5.0625, 0.612854, 5.0625, 0.4845581, 5.0625, 0.2420044, 5.0625, 0.5753174
0.1750345, -0.0062104, 0.2115, 0.0191348, 5.076, 0.6051025, 5.076, 0.4925537, 5.076, 0.250061, 5.076, 0.5733032
0.1755, -0.008896, 0.2120625, 0.0406195, 5.0895, 0.6025391, 5.0895, 0.4951782, 5.0895, 0.2529907, 5.0895, 0.5725098
0.1759655, -0.0102388, 0.212625, 0.0345769, 5.103, 0.600769, 5.103, 0.4969482, 5.103, 0.2548218, 5.103, 0.5719604
0.176431, -0.0085603, 0.2131875, 0.011078, 5.1165, 0.5996704, 5.1165, 0.4980469, 5.1165, 0.2559814, 5.1165, 0.5716553
0.1768966, -0.0072175, 0.21375, 0.0023499, 5.13, 0.5997314, 5.13, 0.4972534, 5.13, 0.2557373, 5.13, 0.5724487
0.1773621, -0.0087282, 0.2143125, -0.0090639, 5.1435, 0.6000977, 5.1435, 0.4959106, 5.1435, 0.2550049, 5.1435, 0.5735474
0.1778276, -0.011078, 0.214875, -0.0469978, 5.157, 0.6021118, 5.157, 0.491272, 5.157, 0.2507935, 5.157, 0.5772705
0.1782931, -0.011078, 0.2154375, -0.1060807, 5.1705, 0.6046753, 5.1705, 0.4891357, 5.1705, 0.2463989, 5.1705, 0.5782471
0.1787586, -0.0082246, 0.216, -0.1695277, 5.184, 0.6125488, 5.184, 0.4824829, 5.184, 0.2327271, 5.184, 0.5812988
0.1792241, -0.0070497, 0.2165625, -0.2064546, 5.1975, 0.6169434, 5.1975, 0.4776001, 5.1975, 0.2253418, 5.1975, 0.5835571
0.1796897, -0.0097353, 0.217125, -0.2010834, 5.211, 0.6211548, 5.211, 0.4719238, 5.211, 0.2180786, 5.211, 0.5864868
0.1801552, -0.0107424, 0.2176875, -0.1534142, 5.2245, 0.630127, 5.2245, 0.4595947, 5.2245, 0.2018433, 5.2245, 0.5924072
0.1806207, -0.0099031, 0.21825, -0.0842603, 5.238, 0.6350708, 5.238, 0.4528809, 5.238, 0.192749, 5.238, 0.5953369
0.1810862, -0.0105745, 0.2188125, -0.0365911, 5.2515, 0.6447144, 5.2515, 0.4382324, 5.2515, 0.1732788, 5.2515, 0.6018677
0.1815517, -0.012253, 0.219375, -0.017792, 5.265, 0.6497192, 5.265, 0.4304199, 5.265, 0.1623535, 5.265, 0.6051636
0.1820172, -0.0132601, 0.2199375, -0.0117494, 5.2785, 0.6550903, 5.2785, 0.4227905, 5.2785, 0.1505127, 5.2785, 0.6078491
0.1824828, -0.0135958, 0.2205, -0.0104067, 5.292, 0.6641846, 5.292, 0.4058228, 5.292, 0.1276245, 5.292, 0.6146851
0.1829483, -0.0125887, 0.2210625, -0.0117494, 5.3055, 0.6682129, 5.3055, 0.3970337, 5.3055, 0.1167603, 5.3055, 0.6182251
0.1834138, -0.0119173, 0.221625, -0.011078, 5.319, 0.6762085, 5.319, 0.3792725, 5.319, 0.0933228, 5.319, 0.6246338
0.1838793, -0.012253, 0.2221875, -0.0090639, 5.3325, 0.6802368, 5.3325, 0.3706665, 5.3325, 0.0809326, 5.3325, 0.6271362
0.1843448, -0.0125887, 0.22275, -0.0063783, 5.346, 0.6841431, 5.346, 0.3616943, 5.346, 0.0682373, 5.346, 0.6296387
0.1848103, -0.0124208, 0.2233125, -0.0050355, 5.3595, 0.6921387, 5.3595, 0.3417358, 5.3595, 0.0440674, 5.3595, 0.6342773
0.1852759, -0.0129244, 0.223875, -0.0030213, 5.373, 0.6956177, 5.373, 0.3312988, 5.373, 0.0324707, 5.373, 0.6366577
0.1857414, -0.0152743, 0.2244375, 0.0046998, 5.3865, 0.7015381, 5.3865, 0.3117676, 5.3865, 0.0107422, 5.3865, 0.640686
0.1862069, -0.0162814, 0.225, 0.0151064, 5.4, 0.7041016, 5.4, 0.3029175, 5.4, 0.0002441, 5.4, 0.6422729
0.1866724, -0.0151064, 0.2255625, 0.0191348, 5.4135, 0.7064209, 5.4135, 0.2948608, 5.4135, -0.0106812, 5.4135, 0.6433716
0.1871379, -0.0146029, 0.226125, 0.0157778, 5.427, 0.7107544, 5.427, 0.2778931, 5.427, -0.0331421, 5.427, 0.6453247
0.1876034, -0.0142672, 0.2266875, 0.0063783, 5.4405, 0.7130737, 5.4405, 0.269165, 5.4405, -0.0441284, 5.4405, 0.645874
0.188069, -0.014435, 0.22725, 0.0073854, 5.454, 0.715271, 5.454, 0.2603149, 5.454, -0.0547485, 5.454, 0.6462402
0.1885345, -0.0139315, 0.2278125, 0.0171206, 5.4675, 0.7189941, 5.4675, 0.2409668, 5.4675, -0.0714111, 5.4675, 0.6479492
0.189, -0.0129244, 0.228375, 0.0248417, 5.481, 0.7212524, 5.481, 0.2297363, 5.481, -0.0775757, 5.481, 0.6488037
0.1894655, -0.0119173, 0.2289375, 0.0261845, 5.4945, 0.7258301, 5.4945, 0.2098999, 5.4945, -0.0924683, 5.4945, 0.6485596
0.189931, -0.0127565, 0.2295, 0.0231632, 5.508, 0.7280273, 5.508, 0.2007446, 5.508, -0.1002197, 5.508, 0.6477661
0.1903966, -0.0135958, 0.2300625, 0.0164492, 5.5215, 0.7302856, 5.5215, 0.1908569, 5.5215, -0.1071777, 5.5215, 0.6470947
0.1908621, -0.0125887, 0.230625, 0.0063783, 5.535, 0.7340698, 5.535, 0.1703491, 5.535, -0.1209106, 5.535, 0.6461182
0.1913276, -0.0114137, 0.2311875, -0.0077211, 5.5485, 0.7356567, 5.5485, 0.1603394, 5.5485, -0.1262817, 5.5485, 0.645874
0.1917931, -0.0117494, 0.23175, -0.024506, 5.562, 0.7376099, 5.562, 0.1419678, 5.562, -0.1387329, 5.562, 0.6453857
0.1922586, -0.0130922, 0.2323125, -0.0473335, 5.5755, 0.7384033, 5.5755, 0.1347656, 5.5755, -0.1471558, 5.5755, 0.644104
0.1927241, -0.0142672, 0.232875, -0.0584115, 5.589, 0.7390747, 5.589, 0.1270752, 5.589, -0.1553955, 5.589, 0.6430054
0.1931897, -0.0132601, 0.2334375, -0.0500191, 5.6025, 0.7398682, 5.6025, 0.1104736, 5.6025, -0.1687012, 5.6025, 0.6417847
0.1936552, -0.0117494, 0.234, -0.0446479, 5.616, 0.7401733, 5.616, 0.1012573, 5.616, -0.1743164, 5.616, 0.6414795
0.1941207, -0.0112459, 0.2345625, -0.056733, 5.6295, 0.7409058, 5.6295, 0.0853271, 5.6295, -0.1846924, 5.6295, 0.6400146
0.1945862, -0.0117494, 0.235125, -0.0684825, 5.643, 0.7403564, 5.643, 0.0794067, 5.643, -0.1921997, 5.643, 0.6392212
0.1950517, -0.012253, 0.2356875, -0.0708324, 5.6565, 0.7400513, 5.6565, 0.0740967, 5.6565, -0.2000732, 5.6565, 0.6378174
0.1955172, -0.0120851, 0.23625, -0.0688182, 5.67, 0.7389526, 5.67, 0.0616455, 5.67, -0.2148438, 5.67, 0.6356201
0.1959828, -0.0109102, 0.2368125, -0.0594186, 5.6835, 0.7384644, 5.6835, 0.0544434, 5.6835, -0.2209473, 5.6835, 0.6347046
0.1964483, -0.010071, 0.237375, -0.0459907, 5.697, 0.7376099, 5.697, 0.0469971, 5.697, -0.2261353, 5.697, 0.6345215
0.1969138, -0.0092317, 0.2379375, -0.03122, 5.7105, 0.7359619, 5.7105, 0.0343628, 5.7105, -0.2366333, 5.7105, 0.6333618
0.1973793, -0.0085603, 0.2385, -0.0198062, 5.724, 0.7341309, 5.724, 0.0299683, 5.724, -0.2442627, 5.724, 0.6328125
0.1978448, -0.0082246, 0.2390625, -0.0137636, 5.7375, 0.7306519, 5.7375, 0.0205688, 5.7375, -0.258728, 5.7375, 0.6314697
0.1983103, -0.0082246, 0.239625, -0.0157778, 5.751, 0.7294922, 5.751, 0.0146484, 5.751, -0.2645264, 5.751, 0.6305542
0.1987759, -0.0082246, 0.2401875, -0.0224918, 5.7645, 0.7281494, 5.7645, 0.0081787, 5.7645, -0.2697144, 5.7645, 0.6300659
0.1992414, -0.0075532, 0.24075, -0.0251774, 5.778, 0.7252197, 5.778, -0.0036011, 5.778, -0.2807617, 5.778, 0.6286621
0.1997069, -0.0058747, 0.2413125, -0.0218204, 5.7915, 0.723999, 5.7915, -0.0089111, 5.7915, -0.2857056, 5.7915, 0.6278076
0.2001724, -0.0041962, 0.241875, -0.0191348, 5.805, 0.72052, 5.805, -0.0170288, 5.805, -0.2967529, 5.805, 0.6264648
0.2006379, -0.0036927, 0.2424375, -0.0194705, 5.8185, 0.7185669, 5.8185, -0.020874, 5.8185, -0.3026733, 5.8185, 0.6257935
0.2011034, -0.0048676, 0.243, -0.0201419, 5.832, 0.71698, 5.832, -0.0253296, 5.832, -0.3076172, 5.832, 0.625061
0.201569, -0.0062104, 0.2435625, -0.021149, 5.8455, 0.7140503, 5.8455, -0.0352783, 5.8455, -0.3164673, 5.8455, 0.6234741
0.2020345, -0.0068818, 0.244125, -0.0204776, 5.859, 0.7128296, 5.859, -0.0404053, 5.859, -0.3203735, 5.859, 0.6226196
0.2025, -0.0077211, 0.2446875, -0.0238346, 5.8725, 0.7094116, 5.8725, -0.0484619, 5.8725, -0.3306274, 5.8725, 0.6205444
0.2029655, -0.0082246, 0.24525, -0.0238346, 5.886, 0.7076416, 5.886, -0.0518799, 5.886, -0.3358154, 5.886, 0.6195068
0.203431, -0.0085603, 0.2458125, -0.0204776, 5.8995, 0.7059326, 5.8995, -0.055603, 5.8995, -0.3410034, 5.8995, 0.6182861
0.2038966, -0.0097353, 0.246375, -0.024506, 5.913, 0.7035522, 5.913, -0.0657959, 5.913, -0.3483276, 5.913, 0.6159058
0.2043621, -0.0099031, 0.2469375, -0.0268559, 5.9265, 0.7022095, 5.9265, -0.0710449, 5.9265, -0.3521729, 5.9265, 0.6146851
0.2048276, -0.0090639, 0.2475, -0.0258488, 5.94, 0.7006226, 5.94, -0.0758667, 5.94, -0.3566895, 5.94, 0.6132812
0.2052931, -0.0075532, 0.2480625, -0.0318914, 5.9535, 0.6964722, 5.9535, -0.0848389, 5.9535, -0.3674316, 5.9535, 0.6104736
0.2057586, -0.0085603, 0.248625, -0.0339055, 5.967, 0.694397, 5.967, -0.0892944, 5.967, -0.3728027, 5.967, 0.6090088
0.2062241, -0.0102388, 0.2491875, -0.0305486, 5.9805, 0.6901245, 5.9805, -0.0982056, 5.9805, -0.3829956, 5.9805, 0.6060791
0.2066897, -0.0102388, 0.24975, -0.0265202, 5.994, 0.6880493, 5.994, -0.1025391, 5.994, -0.3876953, 5.994, 0.6047363
0.2071552, -0.0102388, 0.2503125, -0.024506, 6.0075, 0.6864624, 6.0075, -0.1073608, 6.0075, -0.3919678, 6.0075, 0.6030273
0.2076207, -0.0085603, 0.250875, -0.0241703, 6.021, 0.6830444, 6.021, -0.1176758, 6.021, -0.3999023, 6.021, 0.5997314
0.2080862, -0.0082246, 0.2514375, -0.0218204, 6.0345, 0.6810913, 6.0345, -0.1228027, 6.0345, -0.4039307, 6.0345, 0.5982056
0.2085517, -0.008896, 0.252, -0.0204776, 6.048, 0.6765137, 6.048, -0.1317139, 6.048, -0.413147, 6.048, 0.5952148
0.2090172, -0.0082246, 0.2525625, -0.0191348, 6.0615, 0.6738892, 6.0615, -0.1359253, 6.0615, -0.418396, 6.0615, 0.5935669
0.2094828, -0.0070497, 0.253125, -0.0218204, 6.075, 0.6717529, 6.075, -0.140686, 6.075, -0.4227295, 6.075, 0.5917969
0.2099483, -0.0063783, 0.2536875, -0.0221561, 6.0885, 0.6678467, 6.0885, -0.151001, 6.0885, -0.4297485, 6.0885, 0.5886841
0.2104138, -0.0077211, 0.25425, -0.0204776, 6.102, 0.6654663, 6.102, -0.1555786, 6.102, -0.4337769, 6.102, 0.5872192
0.2108793, -0.0093996, 0.2548125, -0.0191348, 6.1155, 0.6604614, 6.1155, -0.1636963, 6.1155, -0.4425659, 6.1155, 0.5841064
0.2113448, -0.0099031, 0.255375, -0.0214847, 6.129, 0.6576538, 6.129, -0.1674805, 6.129, -0.4472046, 6.129, 0.5825806
0.2118103, -0.0078889, 0.2559375, -0.0258488, 6.1425, 0.6549072, 6.1425, -0.1716309, 6.1425, -0.4517212, 6.1425, 0.5809937
0.2122759, -0.0075532, 0.2565, -0.0255131, 6.156, 0.6502686, 6.156, -0.1813354, 6.156, -0.4588623, 6.156, 0.5776978
0.2127414, -0.0105745, 0.2570625, -0.024506, 6.1695, 0.6479492, 6.1695, -0.1858521, 6.1695, -0.4620972, 6.1695, 0.5762329
0.2132069, -0.0112459, 0.257625, -0.0251774, 6.183, 0.6430664, 6.183, -0.1935425, 6.183, -0.4691772, 6.183, 0.5734863
0.2136724, -0.0102388, 0.2581875, -0.0288701, 6.1965, 0.6404419, 6.1965, -0.1969604, 6.1965, -0.4728394, 6.1965, 0.5722046
0.2141379, -0.0095674, 0.25875, -0.0339055, 6.21, 0.6376953, 6.21, -0.2002563, 6.21, -0.4766846, 6.21, 0.5709839
0.2146034, -0.0104067, 0.2593125, -0.0386053, 6.2235, 0.6326294, 6.2235, -0.2076416, 6.2235, -0.4834595, 6.2235, 0.5682373
0.215069, -0.0115816, 0.259875, -0.0399481, 6.237, 0.6303101, 6.237, -0.2116089, 6.237, -0.4864502, 6.237, 0.5667725
0.2155345, -0.0124208, 0.2604375, -0.0359197, 6.2505, 0.6278076, 6.2505, -0.2154541, 6.2505, -0.489563, 6.2505, 0.5654907
0.216, -0.0117494, 0.261, -0.0298772, 6.264, 0.6228027, 6.264, -0.2229004, 6.264, -0.4957275, 6.264, 0.5626831
0.2164655, -0.0115816, 0.2615625, -0.0191348, 6.2775, 0.6206055, 6.2775, -0.2265625, 6.2775, -0.4985962, 6.2775, 0.5612183
0.216931, -0.0112459, 0.262125, 0.0063783, 6.291, 0.6149292, 6.291, -0.2331543, 6.291, -0.5054932, 6.291, 0.5585938
0.2173966, -0.010071, 0.2626875, 0.0412909, 6.3045, 0.6124878, 6.3045, -0.2369995, 6.3045, -0.5084229, 6.3045, 0.5569458
0.2178621, -0.0087282, 0.26325, 0.0631113, 6.318, 0.6101685, 6.318, -0.2411499, 6.318, -0.5111084, 6.318, 0.5552979
0.2183276, -0.0083925, 0.2638125, 0.0560616, 6.3315, 0.6049194, 6.3315, -0.2492065, 6.3315, -0.5167236, 6.3315, 0.5522461
0.2187931, -0.0092317, 0.264375, 0.0238346, 6.345, 0.602417, 6.345, -0.25354, 6.345, -0.5192871, 6.345, 0.5505371
0.2192586, -0.0119173, 0.2649375, -0.0083925, 6.3585, 0.597168, 6.3585, -0.2618408, 6.3585, -0.5248413, 6.3585, 0.5471802
0.2197241, -0.0142672, 0.2655, -0.0325628, 6.372, 0.5944824, 6.372, -0.265686, 6.372, -0.5276489, 6.372, 0.5455322
0.2201897, -0.0117494, 0.2660625, -0.0493477, 6.3855, 0.5914917, 6.3855, -0.2692871, 6.3855, -0.5307617, 6.3855, 0.5440063
0.2206552, -0.0099031, 0.266625, -0.0661326, 6.399, 0.5854492, 6.399, -0.2761841, 6.399, -0.5371704, 6.399, 0.5407104
0.2211207, -0.0109102, 0.2671875, -0.0862745, 6.4125, 0.5825195, 6.4125, -0.2796021, 6.4125, -0.5402222, 6.4125, 0.5391235
0.2215862, -0.0115816, 0.26775, -0.0983597, 6.426, 0.5767822, 6.426, -0.2855835, 6.426, -0.5462036, 6.426, 0.5361938
0.2220517, -0.0114137, 0.2683125, -0.0792248, 6.4395, 0.5737915, 6.4395, -0.2878418, 6.4395, -0.5491333, 6.4395, 0.5350952
0.2225172, -0.0112459, 0.268875, -0.0527047, 6.453, 0.5708008, 6.453, -0.2895508, 6.453, -0.552124, 6.453, 0.5343018
0.2229828, -0.0109102, 0.2694375, -0.0399481, 6.4665, 0.5654297, 6.4665, -0.2922363, 6.4665, -0.5574951, 6.4665, 0.53302
0.2234483, -0.0114137, 0.27, -0.0453193, 6.48, 0.5631104, 6.48, -0.293335, 6.48, -0.5597534, 6.48, 0.5324707
0.2239138, -0.0125887, 0.2705625, -0.0577401, 6.4935, 0.56073, 6.4935, -0.2941895, 6.4935, -0.5620728, 6.4935, 0.5320435
0.2243793, -0.0147707, 0.271125, -0.0647898, 6.507, 0.5564575, 6.507, -0.2954712, 6.507, -0.56604, 6.507, 0.5316162
0.2248448, -0.0137636, 0.2716875, -0.0661326, 6.5205, 0.5541382, 6.5205, -0.2958374, 6.5205, -0.5681763, 6.5205, 0.5316162
0.2253103, -0.0115816, 0.27225, -0.0647898, 6.534, 0.5494995, 6.534, -0.2955933, 6.534, -0.5722046, 6.534, 0.5321655
0.2257759, -0.0115816, 0.2728125, -0.0627756, 6.5475, 0.5474854, 6.5475, -0.295105, 6.5475, -0.5739136, 6.5475, 0.5327148
0.2262414, -0.012253, 0.273375, -0.0584115, 6.561, 0.5454712, 6.561, -0.2944946, 6.561, -0.5756226, 6.561, 0.5332642
0.2267069, -0.0104067, 0.2739375, -0.0473335, 6.5745, 0.5409546, 6.5745, -0.2929688, 6.5745, -0.5794067, 6.5745, 0.5346069
0.2271724, -0.0095674, 0.2745, -0.0335698, 6.588, 0.5380249, 6.588, -0.2918701, 6.588, -0.5818481, 6.588, 0.5355835
0.2276379, -0.0095674, 0.2750625, -0.0251774, 6.6015, 0.5314941, 6.6015, -0.2892456, 6.6015, -0.5870361, 6.6015, 0.5378418
0.2281034, -0.0097353, 0.275625, -0.0228275, 6.615, 0.5279541, 6.615, -0.2883301, 6.615, -0.5894165, 6.615, 0.5391846
0.228569, -0.0102388, 0.2761875, -0.021149, 6.6285, 0.5250854, 6.6285, -0.2876587, 6.6285, -0.5913696, 6.6285, 0.5402222
0.2290345, -0.0099031, 0.27675, -0.017792, 6.642, 0.519043, 6.642, -0.2851562, 6.642, -0.595459, 6.642, 0.5428467
0.2295, -0.008896, 0.2773125, -0.0164492, 6.6555, 0.5149536, 6.6555, -0.2825928, 6.6555, -0.5985107, 6.6555, 0.5447388
0.2299655, -0.0075532, 0.277875, -0.0174563, 6.669, 0.5061035, 6.669, -0.2756958, 6.669, -0.6049194, 6.669, 0.5494385
0.230431, -0.0070497, 0.2784375, -0.0164492, 6.6825, 0.5026855, 6.6825, -0.272644, 6.6825, -0.6072998, 6.6825, 0.5515137
0.2308966, -0.0077211, 0.279, -0.0151064, 6.696, 0.5002441, 6.696, -0.2702637, 6.696, -0.6089478, 6.696, 0.5531006
0.2313621, -0.0075532, 0.2795625, -0.0151064, 6.7095, 0.4966431, 6.7095, -0.2680664, 6.7095, -0.6104736, 6.7095, 0.5557251
0.2318276, -0.0075532, 0.280125, -0.0171206, 6.723, 0.494873, 6.723, -0.2669678, 6.723, -0.611145, 6.723, 0.5570679
0.2322931, -0.0083925, 0.2806875, -0.021149, 6.7365, 0.4888916, 6.7365, -0.2613525, 6.7365, -0.6152344, 6.7365, 0.5605469
0.2327586, -0.0077211, 0.28125, -0.0218204, 6.75, 0.4854126, 6.75, -0.2576904, 6.75, -0.6177979, 6.75, 0.562439
0.2332241, -0.008896, 0.2818125, -0.0164492, 6.7635, 0.4823608, 6.7635, -0.2544556, 6.7635, -0.619812, 6.7635, 0.56427
0.2336897, -0.0104067, 0.282375, -0.0077211, 6.777, 0.4783936, 6.777, -0.2491455, 6.777, -0.6224976, 6.777, 0.5670776
0.2341552, -0.0105745, 0.2829375, -0.0036927, 6.7905, 0.4770508, 6.7905, -0.2471924, 6.7905, -0.623291, 6.7905, 0.5681763
0.2346207, -0.0092317, 0.2835, -0.0023499, 6.804, 0.4760742, 6.804, -0.2455444, 6.804, -0.6237183, 6.804, 0.5692749
0.2350862, -0.0085603, 0.2840625, 0.0006714, 6.8175, 0.4742432, 6.8175, -0.2416992, 6.8175, -0.6246948, 6.8175, 0.5713501
0.2355517, -0.0072175, 0.284625, 0.003357, 6.831, 0.4730225, 6.831, -0.2390137, 6.831, -0.6255493, 6.831, 0.5725098
0.2360172, -0.0045319, 0.2851875, -0.0013428, 6.8445, 0.4725342, 6.8445, -0.234375, 6.8445, -0.6258545, 6.8445, 0.5744629
0.2364828, -0.0048676, 0.28575, -0.0063783, 6.858, 0.4732056, 6.858, -0.2327271, 6.858, -0.6253052, 6.858, 0.5752563
0.2369483, -0.0062104, 0.2863125, -0.0104067, 6.8715, 0.473999, 6.8715, -0.2313232, 6.8715, -0.6245728, 6.8715, 0.5759277
0.2374138, -0.0068818, 0.286875, -0.0201419, 6.885, 0.4748535, 6.885, -0.2280273, 6.885, -0.6237183, 6.885, 0.5774536
0.2378793, -0.0062104, 0.2874375, -0.0285344, 6.8985, 0.4753418, 6.8985, -0.2264404, 6.8985, -0.62323, 6.8985, 0.5782471
0.2383448, -0.0065461, 0.288, -0.0292058, 6.912, 0.4767456, 6.912, -0.2235107, 6.912, -0.6221924, 6.912, 0.5793457
0.2388103, -0.0085603, 0.2885625, -0.0231632, 6.9255, 0.4777222, 6.9255, -0.2224121, 6.9255, -0.621521, 6.9255, 0.5796509
0.2392759, -0.0102388, 0.289125, -0.0117494, 6.939, 0.4793091, 6.939, -0.2219849, 6.939, -0.6204224, 6.939, 0.5797119
0.2397414, -0.0119173, 0.2896875, -0.0063783, 6.9525, 0.4825439, 6.9525, -0.2213135, 6.9525, -0.6184082, 6.9525, 0.5794067
0.2402069, -0.0114137, 0.29025, -0.0127565, 6.966, 0.4845581, 6.966, -0.2210083, 6.966, -0.6172485, 6.966, 0.5791016
0.2406724, -0.0109102, 0.2908125, -0.0151064, 6.9795, 0.4881592, 6.9795, -0.2197876, 6.9795, -0.6151123, 6.9795, 0.5787964
0.2411379, -0.0109102, 0.291375, -0.0157778, 6.993, 0.4901123, 6.993, -0.2190552, 6.993, -0.6140747, 6.993, 0.5785522
0.2416034, -0.0097353, 0.2919375, -0.0151064, 7.0065, 0.4927368, 7.0065, -0.21875, 7.0065, -0.6124878, 7.0065, 0.578125
0.242069, -0.0099031, 0.2925, -0.0083925, 7.02, 0.4989624, 7.02, -0.2199707, 7.02, -0.6082764, 7.02, 0.5767822
0.2425345, -0.0099031, 0.2930625, 0.0043641, 7.0335, 0.5026855, 7.0335, -0.2210693, 7.0335, -0.6055298, 7.0335, 0.5759888
0.243, -0.0102388, 0.293625, 0.0218204, 7.047, 0.5058594, 7.047, -0.2217407, 7.047, -0.6033936, 7.047, 0.5752563
0.2434655, -0.0109102, 0.2941875, 0.0248417, 7.0605, 0.512085, 7.0605, -0.222168, 7.0605, -0.5990601, 7.0605, 0.5740356
0.243931, -0.0115816, 0.29475, -0.0003357, 7.074, 0.5142822, 7.074, -0.222168, 7.074, -0.5975952, 7.074, 0.5736084
0.2443966, -0.0109102, 0.2953125, -0.0255131, 7.0875, 0.519043, 7.0875, -0.2232056, 7.0875, -0.5941772, 7.0875, 0.5725098
0.2448621, -0.0102388, 0.295875, -0.0271916, 7.101, 0.5220947, 7.101, -0.223999, 7.101, -0.5919189, 7.101, 0.5717163
0.2453276, -0.0099031, 0.2964375, -0.0198062, 7.1145, 0.5256348, 7.1145, -0.2246704, 7.1145, -0.5892334, 7.1145, 0.5709839
0.2457931, -0.0115816, 0.297, -0.035584, 7.128, 0.5333862, 7.128, -0.2260742, 7.128, -0.5834961, 7.128, 0.5691528
0.2462586, -0.0132601, 0.2975625, -0.0795605, 7.1415, 0.5369263, 7.1415, -0.2266846, 7.1415, -0.5806274, 7.1415, 0.5685425
0.2467241, -0.0129244, 0.298125, -0.1255512, 7.155, 0.5456543, 7.155, -0.2277832, 7.155, -0.5731812, 7.155, 0.5672607
0.2471897, -0.011078, 0.2986875, -0.1473716, 7.1685, 0.5507202, 7.1685, -0.2278442, 7.1685, -0.5690308, 7.1685, 0.5665283
0.2476552, -0.0124208, 0.29925, -0.1359579, 7.182, 0.5566406, 7.182, -0.2276611, 7.182, -0.56427, 7.182, 0.5656128
0.2481207, -0.0130922, 0.2998125, -0.1064164, 7.1955, 0.569458, 7.1955, -0.2269287, 7.1955, -0.5531616, 7.1955, 0.5640869
0.2485862, -0.0124208, 0.300375, -0.0809033, 7.209, 0.5762329, 7.209, -0.2268066, 7.209, -0.5470581, 7.209, 0.5632324
0.2490517, -0.012253, 0.3009375, -0.0641184, 7.2225, 0.5905762, 7.2225, -0.2269287, 7.2225, -0.5340576, 7.2225, 0.560791
0.2495172, -0.0124208, 0.3015, -0.0560616, 7.236, 0.5982666, 7.236, -0.2272339, 7.236, -0.5266724, 7.236, 0.5595093
0.2499828, -0.0117494, 0.3020625, -0.0476692, 7.2495, 0.605835, 7.2495, -0.2269287, 7.2495, -0.519104, 7.2495, 0.5585938
0.2504483, -0.0105745, 0.302625, -0.0365911, 7.263, 0.6213379, 7.263, -0.2252197, 7.263, -0.5029297, 7.263, 0.5569458
0.2509138, -0.0105745, 0.3031875, -0.0328985, 7.2765, 0.6298218, 7.2765, -0.2243652, 7.2765, -0.4937134, 7.2765, 0.5560913
0.2513793, -0.0102388, 0.30375, -0.0362554, 7.29, 0.6474609, 7.29, -0.22229, 7.29, -0.4743652, 7.29, 0.5534668
0.2518448, -0.0099031, 0.3043125, -0.0406195, 7.3035, 0.6566162, 7.3035, -0.2211914, 7.3035, -0.463623, 7.3035, 0.5522461
0.2523103, -0.0102388, 0.304875, -0.0516976, 7.317, 0.6654053, 7.317, -0.2196045, 7.317, -0.4527588, 7.317, 0.5513916
0.2527759, -0.0114137, 0.3054375, -0.0513619, 7.3305, 0.6818848, 7.3305, -0.2141113, 7.3305, -0.4320068, 7.3305, 0.5500488
0.2532414, -0.0112459, 0.306, -0.0298772, 7.344, 0.6902466, 7.344, -0.2111206, 7.344, -0.4209595, 7.344, 0.5493164
0.2537069, -0.0115816, 0.3065625, -0.0063783, 7.3575, 0.6989746, 7.3575, -0.208374, 7.3575, -0.4089355, 7.3575, 0.5484619
0.2541724, -0.0117494, 0.307125, -0.0003357, 7.371, 0.7160034, 7.371, -0.2029419, 7.371, -0.383667, 7.371, 0.5466919
0.2546379, -0.0112459, 0.3076875, -0.0043641, 7.3845, 0.723999, 7.3845, -0.1995239, 7.3845, -0.3712769, 7.3845, 0.5460815
0.2551034, -0.0099031, 0.30825, -0.0070497, 7.398, 0.7384644, 7.398, -0.19104, 7.398, -0.3466797, 7.398, 0.5458374
0.255569, -0.0095674, 0.3088125, -0.0073854, 7.4115, 0.7451782, 7.4115, -0.18573, 7.4115, -0.3347168, 7.4115, 0.5460205
0.2560345, -0.0119173, 0.309375, -0.0104067, 7.425, 0.75177, 7.425, -0.1801758, 7.425, -0.3226318, 7.425, 0.5461426
0.2565, -0.0139315, 0.3099375, -0.0124208, 7.4385, 0.7648926, 7.4385, -0.1685181, 7.4385, -0.296936, 7.4385, 0.5462646
0.2569655, -0.0130922, 0.3105, -0.0117494, 7.452, 0.770752, 7.452, -0.1611938, 7.452, -0.284729, 7.452, 0.5466919
0.257431, -0.0115816, 0.3110625, -0.0117494, 7.4655, 0.7763062, 7.4655, -0.1530151, 7.4655, -0.2728882, 7.4655, 0.5471802
0.2578966, -0.0112459, 0.311625, -0.0124208, 7.479, 0.7859497, 7.479, -0.1357422, 7.479, -0.2496948, 7.479, 0.5490723
0.2583621, -0.0102388, 0.3121875, -0.0130922, 7.4925, 0.7904663, 7.4925, -0.126709, 7.4925, -0.2376709, 7.4925, 0.5501099
0.2588276, -0.0109102, 0.31275, -0.0120851, 7.506, 0.7982178, 7.506, -0.1080322, 7.506, -0.2129517, 7.506, 0.5530396
0.2592931, -0.0114137, 0.3133125, -0.010071, 7.5195, 0.8015137, 7.5195, -0.0980225, 7.5195, -0.2007446, 7.5195, 0.5546875
0.2597586, -0.0114137, 0.313875, -0.0063783, 7.533, 0.8058472, 7.533, -0.0750732, 7.533, -0.1790161, 7.533, 0.5593872
0.2602241, -0.0105745, 0.3144375, -0.0050355, 7.5465, 0.8074951, 7.5465, -0.0629883, 7.5465, -0.1679077, 7.5465, 0.5619507
0.2606897, -0.0095674, 0.315, -0.0036927, 7.56, 0.8085938, 7.56, -0.0504761, 7.56, -0.1574097, 7.56, 0.5646362
0.2611552, -0.008896, 0.3155625, -0.0016785, 7.5735, 0.8096313, 7.5735, -0.0248413, 7.5735, -0.1361084, 7.5735, 0.5703735
0.2616207, -0.0085603, 0.316125, 0.0050355, 7.587, 0.8095703, 7.587, -0.0111694, 7.587, -0.1259155, 7.587, 0.5732422
0.2620862, -0.0105745, 0.3166875, 0.0090639, 7.6005, 0.8092651, 7.6005, 0.0028076, 7.6005, -0.1157227, 7.6005, 0.5759277
0.2625517, -0.0119173, 0.31725, 0.0063783, 7.614, 0.8074341, 7.614, 0.0319214, 7.614, -0.0962524, 7.614, 0.5811768
0.2630172, -0.0093996, 0.3178125, 0.0016785, 7.6275, 0.8062134, 7.6275, 0.0465088, 7.6275, -0.0871582, 7.6275, 0.583313
0.2634828, -0.008896, 0.318375, -0.0046998, 7.641, 0.8027344, 7.641, 0.0759277, 7.641, -0.0679321, 7.641, 0.5875854
0.2639483, -0.0104067, 0.3189375, -0.0073854, 7.6545, 0.8006592, 7.6545, 0.0910034, 7.6545, -0.0588379, 7.6545, 0.5891724
0.2644138, -0.010071, 0.3195, -0.0151064, 7.668, 0.7985229, 7.668, 0.1064453, 7.668, -0.050415, 7.668, 0.590332
0.2648793, -0.0077211, 0.3200625, -0.0258488, 7.6815, 0.7938232, 7.6815, 0.1367188, 7.6815, -0.0328369, 7.6815, 0.5916138
0.2653448, -0.0062104, 0.320625, -0.0379339, 7.695, 0.7915039, 7.695, 0.1519775, 7.695, -0.0239258, 7.695, 0.5914917
0.2658103, -0.0063783, 0.3211875, -0.0500191, 7.7085, 0.7861938, 7.7085, 0.1813965, 7.7085, -0.005249, 7.7085, 0.5907593
0.2662759, -0.0085603, 0.32175, -0.06009, 7.722, 0.7833252, 7.722, 0.1958008, 7.722, 0.0040894, 7.722, 0.5899658
0.2667414, -0.0104067, 0.3223125, -0.063447, 7.7355, 0.7805176, 7.7355, 0.2108765, 7.7355, 0.0123901, 7.7355, 0.5883789
0.2672069, -0.0097353, 0.322875, -0.0621042, 7.749, 0.7741089, 7.749, 0.2424316, 7.749, 0.0283203, 7.749, 0.5841064
0.2676724, -0.0077211, 0.3234375, -0.0621042, 7.7625, 0.7705078, 7.7625, 0.2578735, 7.7625, 0.036499, 7.7625, 0.5817871
0.2681379, -0.0068818, 0.324, -0.056733, 7.776, 0.7633667, 7.776, 0.2883301, 7.776, 0.0546265, 7.776, 0.5754395
0.2686034, -0.0065461, 0.3245625, -0.0473335, 7.7895, 0.7594604, 7.7895, 0.3024292, 7.7895, 0.0646362, 7.7895, 0.5723267
0.269069, -0.0065461, 0.325125, -0.0382696, 7.803, 0.755188, 7.803, 0.3173218, 7.803, 0.0731812, 7.803, 0.5688477
0.2695345, -0.0068818, 0.3256875, -0.0352483, 7.8165, 0.746582, 7.8165, 0.3450928, 7.8165, 0.0911865, 7.8165, 0.5614624
0.27, -0.0073854, 0.32625, -0.0308843, 7.83, 0.7417603, 7.83, 0.3590698, 7.83, 0.0997314, 7.83, 0.5576172
0.2704655, -0.0077211, 0.3268125, -0.0251774, 7.8435, 0.7317505, 7.8435, 0.3845825, 7.8435, 0.1187134, 7.8435, 0.5499878
0.270931, -0.008896, 0.327375, -0.0251774, 7.857, 0.7266235, 7.857, 0.3973999, 7.857, 0.1273193, 7.857, 0.5457764
0.2713966, -0.0095674, 0.3279375, -0.0298772, 7.8705, 0.7214966, 7.8705, 0.4101562, 7.8705, 0.135376, 7.8705, 0.5411377
0.2718621, -0.0082246, 0.3285, -0.0379339, 7.884, 0.7099609, 7.884, 0.4342651, 7.884, 0.1522217, 7.884, 0.5331421
0.2723276, -0.0082246, 0.3290625, -0.0406195, 7.8975, 0.7038574, 7.8975, 0.4462891, 7.8975, 0.1600952, 7.8975, 0.5289307
0.2727931, -0.0090639, 0.329625, -0.0285344, 7.911, 0.6972656, 7.911, 0.4579468, 7.911, 0.168396, 7.911, 0.5251465
0.2732586, -0.008896, 0.3301875, -0.0127565, 7.9245, 0.6836548, 7.9245, 0.4801025, 7.9245, 0.1846924, 7.9245, 0.5176392
0.2737241, -0.0097353, 0.33075, 0.0083925, 7.938, 0.6773071, 7.938, 0.4906006, 7.938, 0.1918945, 7.938, 0.5135498
0.2741897, -0.0105745, 0.3313125, 0.0406195, 7.9515, 0.6650391, 7.9515, 0.508728, 7.9515, 0.206665, 7.9515, 0.5061646
0.2746552, -0.0097353, 0.331875, 0.0748608, 7.965, 0.6591797, 7.965, 0.5166016, 7.965, 0.2138672, 7.965, 0.5028687
0.2751207, -0.0078889, 0.3324375, 0.0963455, 7.9785, 0.6533203, 7.9785, 0.5234375, 7.9785, 0.2213135, 7.9785, 0.5001221
0.2755862, -0.0072175, 0.333, 0.0889601, 7.992, 0.6427612, 7.992, 0.5350342, 7.992, 0.2349243, 7.992, 0.4953613
0.2760517, -0.0082246, 0.3335625, 0.0580758, 8.0055, 0.6380615, 8.0055, 0.5392456, 8.0055, 0.2414551, 8.0055, 0.4937744
0.2765172, -0.0087282, 0.334125, 0.0204776, 8.019, 0.6310425, 8.019, 0.5476074, 8.019, 0.2498169, 8.019, 0.4893188
0.2769828, -0.0092317, 0.3346875, -0.0198062, 8.0325, 0.6281738, 8.0325, 0.550354, 8.0325, 0.2528076, 8.0325, 0.4884644
0.2774483, -0.0102388, 0.33525, -0.0627756, 8.046, 0.6263428, 8.046, 0.5521851, 8.046, 0.2548828, 8.046, 0.4876709
0.2779138, -0.0119173, 0.3358125, -0.1017166, 8.0595, 0.6240845, 8.0595, 0.5533447, 8.0595, 0.2566528, 8.0595, 0.4883423
0.2783793, -0.0112459, 0.336375, -0.1248798, 8.073, 0.6240234, 8.073, 0.5527954, 8.073, 0.2564087, 8.073, 0.4891357
0.2788448, -0.0102388, 0.3369375, -0.1174945, 8.0865, 0.6261597, 8.0865, 0.5500488, 8.0865, 0.2529907, 8.0865, 0.491272
0.2793103, -0.011078, 0.3375, -0.0782177, 8.1, 0.6283569, 8.1, 0.5478516, 8.1, 0.2498169, 8.1, 0.4925537
0.2797759, -0.0119173, 0.3380625, -0.0339055, 8.1135, 0.6310425, 8.1135, 0.5448608, 8.1135, 0.2460938, 8.1135, 0.4943237
0.2802414, -0.0102388, 0.338625, -0.0104067, 8.127, 0.637085, 8.127, 0.5366211, 8.127, 0.2369995, 8.127, 0.5
0.2807069, -0.0063783, 0.3391875, -0.0154421, 8.1405, 0.6401978, 8.1405, 0.5324097, 8.1405, 0.2319946, 8.1405, 0.5028076
0.2811724, -0.0041962, 0.33975, -0.0379339, 8.154, 0.6437988, 8.154, 0.5275879, 8.154, 0.2265015, 8.154, 0.5057983
0.2816379, -0.0048676, 0.3403125, -0.056733, 8.1675, 0.6524658, 8.1675, 0.5189209, 8.1675, 0.2122803, 8.1675, 0.5098877
0.2821034, -0.0070497, 0.340875, -0.0657969, 8.181, 0.6571655, 8.181, 0.513916, 8.181, 0.2040405, 8.181, 0.512207
0.282569, -0.0083925, 0.3414375, -0.063447, 8.1945, 0.666748, 8.1945, 0.5018921, 8.1945, 0.1877441, 8.1945, 0.5179443
0.2830345, -0.010071, 0.342, -0.0527047, 8.208, 0.6712036, 8.208, 0.4950562, 8.208, 0.1799927, 8.208, 0.5215454
0.2835, -0.0109102, 0.3425625, -0.0406195, 8.2215, 0.6756592, 8.2215, 0.4882202, 8.2215, 0.1716309, 8.2215, 0.5250244
0.2839655, -0.0114137, 0.343125, -0.0308843, 8.235, 0.6843872, 8.235, 0.4741821, 8.235, 0.1539917, 8.235, 0.5319824
0.284431, -0.012253, 0.3436875, -0.0298772, 8.2485, 0.6886597, 8.2485, 0.4669189, 8.2485, 0.1448364, 8.2485, 0.5355225
0.2848966, -0.0112459, 0.34425, -0.0285344, 8.262, 0.6972656, 8.262, 0.4515381, 8.262, 0.1251831, 8.262, 0.5424194
0.2853621, -0.0102388, 0.3448125, -0.0265202, 8.2755, 0.7015381, 8.2755, 0.4435425, 8.2755, 0.114502, 8.2755, 0.5458984
0.2858276, -0.0090639, 0.345375, -0.0258488, 8.289, 0.7058716, 8.289, 0.4351807, 8.289, 0.1038208, 8.289, 0.5491943
0.2862931, -0.0078889, 0.3459375, -0.0251774, 8.3025, 0.7141113, 8.3025, 0.4172363, 8.3025, 0.0825806, 8.3025, 0.5559692
0.2867586, -0.0072175, 0.3465, -0.0238346, 8.316, 0.7176514, 8.316, 0.4077148, 8.316, 0.072876, 8.316, 0.5598755
0.2872241, -0.0078889, 0.3470625, -0.0231632, 8.3295, 0.7249146, 8.3295, 0.3903809, 8.3295, 0.0519409, 8.3295, 0.5651245
0.2876897, -0.0075532, 0.347625, -0.0218204, 8.343, 0.7287598, 8.343, 0.3822021, 8.343, 0.0402222, 8.343, 0.5667114
0.2881552, -0.0073854, 0.3481875, -0.0234989, 8.3565, 0.732666, 8.3565, 0.3724365, 8.3565, 0.0301514, 8.3565, 0.5688477
0.2886207, -0.008896, 0.34875, -0.0251774, 8.37, 0.7393799, 8.37, 0.352417, 8.37, 0.0105591, 8.37, 0.5735474
0.2890862, -0.008896, 0.3493125, -0.0228275, 8.3835, 0.7427368, 8.3835, 0.3425293, 8.3835, 0.0007324, 8.3835, 0.5753174
0.2895517, -0.0075532, 0.349875, -0.0208133, 8.397, 0.7461548, 8.397, 0.3334351, 8.397, -0.0096436, 8.397, 0.5761719
0.2900172, -0.0082246, 0.3504375, -0.0218204, 8.4105, 0.7528076, 8.4105, 0.3134766, 8.4105, -0.0269775, 8.4105, 0.5782471
0.2904828, -0.008896, 0.351, -0.0201419, 8.424, 0.7559814, 8.424, 0.3028564, 8.424, -0.0352173, 8.424, 0.5792847
0.2909483, -0.0085603, 0.3515625, -0.017792, 8.4375, 0.7613525, 8.4375, 0.2820435, 8.4375, -0.0500488, 8.4375, 0.581665
0.2914138, -0.0087282, 0.352125, -0.0151064, 8.451, 0.7637329, 8.451, 0.2714233, 8.451, -0.0561523, 8.451, 0.5830078
0.2918793, -0.0075532, 0.3526875, -0.0164492, 8.4645, 0.7661743, 8.4645, 0.2610474, 8.4645, -0.0623779, 8.4645, 0.5839233
0.2923448, -0.0083925, 0.35325, -0.014435, 8.478, 0.7709351, 8.478, 0.2416382, 8.478, -0.0756836, 8.478, 0.5844116
0.2928103, -0.0095674, 0.3538125, -0.0134279, 8.4915, 0.7731934, 8.4915, 0.2331543, 8.4915, -0.0840454, 8.4915, 0.5837402
0.2932759, -0.0095674, 0.354375, -0.0137636, 8.505, 0.7772217, 8.505, 0.2144775, 8.505, -0.0977783, 8.505, 0.5834351
0.2937414, -0.0082246, 0.3549375, -0.014435, 8.5185, 0.7786865, 8.5185, 0.2043457, 8.5185, -0.1019897, 8.5185, 0.5843506
0.2942069, -0.0078889, 0.3555, -0.0157778, 8.532, 0.7797852, 8.532, 0.1951904, 8.532, -0.1064453, 8.532, 0.5852051
0.2946724, -0.0099031, 0.3560625, -0.0151064, 8.5455, 0.7813721, 8.5455, 0.1812744, 8.5455, -0.1199951, 8.5455, 0.5849609
0.2951379, -0.0099031, 0.356625, -0.0151064, 8.559, 0.7819824, 8.559, 0.1752319, 8.559, -0.1276855, 8.559, 0.5843506
0.2956034, -0.010071, 0.3571875, -0.0154421, 8.5725, 0.7833862, 8.5725, 0.1600952, 8.5725, -0.1398315, 8.5725, 0.5840454
0.296069, -0.0115816, 0.35775, -0.0137636, 8.586, 0.7841797, 8.586, 0.1524048, 8.586, -0.1455688, 8.586, 0.5836182
0.2965345, -0.0114137, 0.3583125, -0.0117494, 8.5995, 0.7850342, 8.5995, 0.1445923, 8.5995, -0.1513672, 8.5995, 0.5830688
0.297, -0.0112459, 0.358875, -0.0127565, 8.613, 0.7862549, 8.613, 0.1303101, 8.613, -0.1620483, 8.613, 0.5818481
0.2974655, -0.0129244, 0.3594375, -0.010071, 8.6265, 0.7868652, 8.6265, 0.1237183, 8.6265, -0.1669922, 8.6265, 0.5811157
0.297931, -0.012253, 0.36, -0.0057069, 8.64, 0.7880249, 8.64, 0.1109619, 8.64, -0.1776733, 8.64, 0.5789185
0.2983966, -0.0102388, 0.3605625, -0.0114137, 8.6535, 0.7886963, 8.6535, 0.1036987, 8.6535, -0.1817627, 8.6535, 0.578064
0.2988621, -0.008896, 0.361125, -0.0251774, 8.667, 0.7893066, 8.667, 0.0960083, 8.667, -0.1848145, 8.667, 0.5776367
0.2993276, -0.0082246, 0.3616875, -0.038941, 8.6805, 0.7897339, 8.6805, 0.0812378, 8.6805, -0.1901855, 8.6805, 0.5775146
0.2997931, -0.0097353, 0.36225, -0.0433051, 8.694, 0.7895508, 8.694, 0.0753174, 8.694, -0.1948242, 8.694, 0.5770264
0.3002586, -0.0117494, 0.3628125, -0.0372625, 8.7075, 0.7888184, 8.7075, 0.0708008, 8.7075, -0.2006836, 8.7075, 0.5765991
0.3007241, -0.0130922, 0.363375, -0.0302129, 8.721, 0.7866821, 8.721, 0.0628052, 8.721, -0.2127075, 8.721, 0.5761108
0.3011897, -0.0114137, 0.3639375, -0.0224918, 8.7345, 0.7856445, 8.7345, 0.0578613, 8.7345, -0.2175293, 8.7345, 0.5762939
0.3016552, -0.0082246, 0.3645, -0.0124208, 8.748, 0.7839355, 8.748, 0.0463257, 8.748, -0.2244263, 8.748, 0.5770264
0.3021207, -0.0062104, 0.3650625, -0.0083925, 8.7615, 0.782959, 8.7615, 0.0404663, 8.7615, -0.2268066, 8.7615, 0.5778198
0.3025862, -0.0058747, 0.365625, -0.0204776, 8.775, 0.7817383, 8.775, 0.0354004, 8.775, -0.2304077, 8.775, 0.5784302
0.3030517, -0.0058747, 0.3661875, -0.0419623, 8.7885, 0.7789307, 8.7885, 0.0283203, 8.7885, -0.2410278, 8.7885, 0.5782471
0.3035172, -0.0070497, 0.36675, -0.0594186, 8.802, 0.7776489, 8.802, 0.0250244, 8.802, -0.2467041, 8.802, 0.5777588
0.3039828, -0.0082246, 0.3673125, -0.0728466, 8.8155, 0.7754517, 8.8155, 0.0159302, 8.8155, -0.2543335, 8.8155, 0.5776978
0.3044483, -0.0068818, 0.367875, -0.0792248, 8.829, 0.7744141, 8.829, 0.0112915, 8.829, -0.2580566, 8.829, 0.5775757
0.3049138, -0.0053712, 0.3684375, -0.0758679, 8.8425, 0.7731323, 8.8425, 0.0073853, 8.8425, -0.2626953, 8.8425, 0.5772705
0.3053793, -0.0062104, 0.369, -0.0809033, 8.856, 0.7702637, 8.856, 0.0001831, 8.856, -0.2719727, 8.856, 0.5767822
0.3058448, -0.008896, 0.3695625, -0.1017166, 8.8695, 0.7687378, 8.8695, -0.0031738, 8.8695, -0.2764282, 8.8695, 0.5767212
0.3063103, -0.010071, 0.370125, -0.115816, 8.883, 0.7666626, 8.883, -0.0114136, 8.883, -0.2828369, 8.883, 0.5762939
0.3067759, -0.0099031, 0.3706875, -0.1107805, 8.8965, 0.765686, 8.8965, -0.015625, 8.8965, -0.2858887, 8.8965, 0.5759888
0.3072414, -0.0092317, 0.37125, -0.0829175, 8.91, 0.7646484, 8.91, -0.0195923, 8.91, -0.2893677, 8.91, 0.5755005
0.3077069, -0.0097353, 0.3718125, -0.0372625, 8.9235, 0.7623291, 8.9235, -0.0267334, 8.9235, -0.2969971, 8.9235, 0.5743408
0.3081724, -0.0109102, 0.372375, 0.0124208, 8.937, 0.7611694, 8.937, -0.0301514, 8.937, -0.3010864, 8.937, 0.5736084
0.3086379, -0.0115816, 0.3729375, 0.0560616, 8.9505, 0.7601929, 8.9505, -0.0342407, 8.9505, -0.3046875, 8.9505, 0.5728149
0.3091034, -0.0119173, 0.3735, 0.0704967, 8.964, 0.7583618, 8.964, -0.043396, 8.964, -0.3103027, 8.964, 0.5715942
0.309569, -0.0137636, 0.3740625, 0.0506905, 8.9775, 0.7577515, 8.9775, -0.0481567, 8.9775, -0.3121338, 8.9775, 0.5709839
0.3100345, -0.0135958, 0.374625, 0.0292058, 8.991, 0.7559814, 8.991, -0.0563965, 8.991, -0.3172607, 8.991, 0.5698242
0.3105, -0.0115816, 0.3751875, 0.0130922, 9.0045, 0.7548218, 9.0045, -0.0599976, 9.0045, -0.3204956, 9.0045, 0.5690918
0.3109655, -0.0095674, 0.37575, -0.0137636, 9.018, 0.75354, 9.018, -0.0635986, 9.018, -0.3240967, 9.018, 0.5684204
0.311431, -0.0085603, 0.3763125, -0.0574044, 9.0315, 0.7509766, 9.0315, -0.071228, 9.0315, -0.3311157, 9.0315, 0.5668335
0.3118966, -0.0085603, 0.376875, -0.109102, 9.045, 0.7501831, 9.045, -0.0761108, 9.045, -0.333252, 9.045, 0.56604
0.3123621, -0.0099031, 0.3774375, -0.1440146, 9.0585, 0.7485352, 9.0585, -0.0859375, 9.0585, -0.3373413, 9.0585, 0.5643921
0.3128276, -0.0097353, 0.378, -0.1433433, 9.072, 0.7476807, 9.072, -0.090332, 9.072, -0.3397217, 9.072, 0.5634155
0.3132931, -0.0082246, 0.3785625, -0.1013809, 9.0855, 0.7463989, 9.0855, -0.0942993, 9.0855, -0.3428955, 9.0855, 0.5625
0.3137586, -0.0078889, 0.379125, -0.0402838, 9.099, 0.7438965, 9.099, -0.1026611, 9.099, -0.348999, 9.099, 0.5605469
0.3142241, -0.0082246, 0.3796875, 0.0030213, 9.1125, 0.7426758, 9.1125, -0.1071167, 9.1125, -0.3518066, 9.1125, 0.5596313
0.3146897, -0.0082246, 0.38025, 0.017792, 9.126, 0.7406616, 9.126, -0.1165771, 9.126, -0.3564453, 9.126, 0.5574341
0.3151552, -0.0102388, 0.3808125, 0.0151064, 9.1395, 0.739502, 9.1395, -0.1207886, 9.1395, -0.3592529, 9.1395, 0.5563354
0.3156207, -0.011078, 0.381375, 0.0010071, 9.153, 0.7384644, 9.153, -0.1248779, 9.153, -0.3616943, 9.153, 0.5551147
0.3160862, -0.0099031, 0.3819375, -0.0120851, 9.1665, 0.7360229, 9.1665, -0.1327515, 9.1665, -0.3674316, 9.1665, 0.5528564
0.3165517, -0.0085603, 0.3825, -0.0167849, 9.18, 0.7348022, 9.18, -0.1367798, 9.18, -0.3700562, 9.18, 0.5517578
0.3170172, -0.010071, 0.3830625, -0.014435, 9.1935, 0.7324219, 9.1935, -0.1452026, 9.1935, -0.374939, 9.1935, 0.5494385
0.3174828, -0.0125887, 0.383625, -0.0070497, 9.207, 0.7311401, 9.207, -0.1494141, 9.207, -0.3774414, 9.207, 0.5482788
0.3179483, -0.0124208, 0.3841875, -0.0043641, 9.2205, 0.7299805, 9.2205, -0.1535645, 9.2205, -0.3798218, 9.2205, 0.5471191
0.3184138, -0.0132601, 0.38475, -0.0073854, 9.234, 0.727417, 9.234, -0.1616211, 9.234, -0.3842773, 9.234, 0.5449829
0.3188793, -0.0129244, 0.3853125, -0.0070497, 9.2475, 0.7261353, 9.2475, -0.1652222, 9.2475, -0.3868408, 9.2475, 0.5438843
0.3193448, -0.012253, 0.385875, -0.0057069, 9.261, 0.7244873, 9.261, -0.1686401, 9.261, -0.3898315, 9.261, 0.5428467
0.3198103, -0.0115816, 0.3864375, -0.0043641, 9.2745, 0.7214966, 9.2745, -0.1761475, 9.2745, -0.3952637, 9.2745, 0.5405273
0.3202759, -0.0099031, 0.387, -0.0040284, 9.288, 0.7199707, 9.288, -0.1800537, 9.288, -0.3978882, 9.288, 0.5393677
0.3207414, -0.0090639, 0.3875625, -0.003357, 9.3015, 0.7163696, 9.3015, -0.1873779, 9.3015, -0.4041748, 9.3015, 0.5369263
0.3212069, -0.0082246, 0.388125, -0.0030213, 9.315, 0.7142944, 9.315, -0.1907959, 9.315, -0.4075928, 9.315, 0.5359497
0.3216724, -0.0075532, 0.3886875, -0.0050355, 9.3285, 0.7119751, 9.3285, -0.1939087, 9.3285, -0.411499, 9.3285, 0.5349731
0.3221379, -0.0085603, 0.38925, -0.0057069, 9.342, 0.7075195, 9.342, -0.201355, 9.342, -0.4179688, 9.342, 0.53302
0.3226034, -0.0099031, 0.3898125, -0.0057069, 9.3555, 0.7055664, 9.3555, -0.2058105, 9.3555, -0.4202881, 9.3555, 0.5321655
0.323069, -0.0090639, 0.390375, -0.0083925, 9.369, 0.7014771, 9.369, -0.213562, 9.369, -0.4255371, 9.369, 0.5302734
0.3235345, -0.008896, 0.3909375, -0.010071, 9.3825, 0.6990967, 9.3825, -0.2166748, 9.3825, -0.4290161, 9.3825, 0.5294189
0.324, -0.010071, 0.3915, -0.0124208, 9.396, 0.6962891, 9.396, -0.2196045, 9.396, -0.4331055, 9.396, 0.5285645
0.3244655, -0.0105745, 0.3920625, -0.0164492, 9.4095, 0.6898804, 9.4095, -0.225647, 9.4095, -0.4418335, 9.4095, 0.5271606
0.324931, -0.0097353, 0.392625, -0.0224918, 9.423, 0.6868286, 9.423, -0.2293091, 9.423, -0.4457397, 9.423, 0.5263062
0.3253966, -0.0073854, 0.3931875, -0.0298772, 9.4365, 0.6820068, 9.4365, -0.2381592, 9.4365, -0.4508667, 9.4365, 0.524231
0.3258621, -0.0068818, 0.39375, -0.0339055, 9.45, 0.6801758, 9.45, -0.2426758, 9.45, -0.4524536, 9.45, 0.5231934
0.3263276, -0.0068818, 0.3943125, -0.0352483, 9.4635, 0.6780396, 9.4635, -0.2462769, 9.4635, -0.454834, 9.4635, 0.5222168
0.3267931, -0.0083925, 0.394875, -0.0345769, 9.477, 0.6722412, 9.477, -0.251709, 9.477, -0.4620361, 9.477, 0.520813
0.3272586, -0.0102388, 0.3954375, -0.0332341, 9.4905, 0.6694336, 9.4905, -0.2550049, 9.4905, -0.4650879, 9.4905, 0.5201416
0.3277241, -0.0109102, 0.396, -0.0315557, 9.504, 0.6669312, 9.504, -0.258606, 9.504, -0.4675903, 9.504, 0.5193481
0.3281897, -0.0099031, 0.3965625, -0.0325628, 9.5175, 0.6617432, 9.5175, -0.2650757, 9.5175, -0.4727783, 9.5175, 0.5180054
0.3286552, -0.0095674, 0.397125, -0.0292058, 9.531, 0.6592407, 9.531, -0.2678223, 9.531, -0.4754028, 9.531, 0.517395
0.3291207, -0.0105745, 0.3976875, -0.024506, 9.5445, 0.6548462, 9.5445, -0.2734985, 9.5445, -0.4798584, 9.5445, 0.5158691
0.3295862, -0.0115816, 0.39825, -0.0194705, 9.558, 0.6529541, 9.558, -0.2763672, 9.558, -0.4816284, 9.558, 0.5151367
0.3300517, -0.0117494, 0.3988125, -0.0214847, 9.5715, 0.6511841, 9.5715, -0.2786865, 9.5715, -0.4833374, 9.5715, 0.5144653
0.3305172, -0.011078, 0.399375, -0.0342412, 9.585, 0.647522, 9.585, -0.2825928, 9.585, -0.4873657, 9.585, 0.5131836
0.3309828, -0.010071, 0.3999375, -0.0433051, 9.5985, 0.6459351, 9.5985, -0.28479, 9.5985, -0.4890137, 9.5985, 0.5123901
0.3314483, -0.010071, 0.4005, -0.0335698, 9.612, 0.6447144, 9.612, -0.2871094, 9.612, -0.4901123, 9.612, 0.5115356
0.3319138, -0.0115816, 0.4010625, -0.0157778, 9.6255, 0.6427612, 9.6255, -0.291748, 9.6255, -0.4916992, 9.6255, 0.5098267
0.3323793, -0.0125887, 0.401625, -0.0097353, 9.639, 0.6420288, 9.639, -0.2935791, 9.639, -0.4922485, 9.639, 0.5092163
0.3328448, -0.0119173, 0.4021875, -0.0174563, 9.6525, 0.6415405, 9.6525, -0.2958374, 9.6525, -0.4926758, 9.6525, 0.5081177
0.3333103, -0.0109102, 0.40275, -0.0238346, 9.666, 0.6417236, 9.666, -0.2963867, 9.666, -0.4924316, 9.666, 0.5077515
0.3337759, -0.012253, 0.4033125, -0.0251774, 9.6795, 0.6422729, 9.6795, -0.296875, 9.6795, -0.4920044, 9.6795, 0.5072632
0.3342414, -0.0139315, 0.403875, -0.0265202, 9.693, 0.6425781, 9.693, -0.296936, 9.693, -0.4918823, 9.693, 0.506897
0.3347069, -0.0135958, 0.4044375, -0.0271916, 9.7065, 0.6432495, 9.7065, -0.2972412, 9.7065, -0.4912109, 9.7065, 0.5065308
0.3351724, -0.0135958, 0.405, -0.0208133, 9.72, 0.6451416, 9.72, -0.2974854, 9.72, -0.4890137, 9.72, 0.5061035
0.3356379, -0.0124208, 0.4055625, -0.0151064, 9.7335, 0.6466064, 9.7335, -0.2974243, 9.7335, -0.4874268, 9.7335, 0.5057983
0.3361034, -0.0095674, 0.406125, -0.0151064, 9.747, 0.6483154, 9.747, -0.2972412, 9.747, -0.4855957, 9.747, 0.5054932
0.336569, -0.0085603, 0.4066875, -0.0198062, 9.7605, 0.6520996, 9.7605, -0.2956543, 9.7605, -0.4821167, 9.7605, 0.5049438
0.3370345, -0.0082246, 0.40725, -0.0171206, 9.774, 0.6539917, 9.774, -0.2946167, 9.774, -0.4804077, 9.774, 0.5046997
0.3375, -0.0068818, 0.4078125, -0.0090639, 9.7875, 0.6589355, 9.7875, -0.2925415, 9.7875, -0.4750977, 9.7875, 0.5044556
0.3379655, -0.0072175, 0.408375, -0.0057069, 9.801, 0.6618652, 9.801, -0.2912598, 9.801, -0.4717407, 9.801, 0.5045166
0.338431, -0.0070497, 0.4089375, -0.011078, 9.8145, 0.664978, 9.8145, -0.2896118, 9.8145, -0.4683838, 9.8145, 0.5045166
0.3388966, -0.0078889, 0.4095, -0.024506, 9.828, 0.671875, 9.828, -0.2854614, 9.828, -0.4614258, 9.828, 0.5041504
0.3393621, -0.0090639, 0.4100625, -0.0433051, 9.8415, 0.6759033, 9.8415, -0.2835693, 9.8415, -0.4569702, 9.8415, 0.5039062
0.3398276, -0.0102388, 0.410625, -0.0500191, 9.855, 0.6845703, 9.855, -0.2786865, 9.855, -0.4470825, 9.855, 0.5037842
0.3402931, -0.0117494, 0.4111875, -0.0493477, 9.8685, 0.6891479, 9.8685, -0.2757568, 9.8685, -0.4415283, 9.8685, 0.5040283
0.3407586, -0.012253, 0.41175, -0.049012, 9.882, 0.6939697, 9.882, -0.2723389, 9.882, -0.435791, 9.882, 0.5042725
0.3412241, -0.0129244, 0.4123125, -0.0496834, 9.8955, 0.7035522, 9.8955, -0.2633057, 9.8955, -0.4254761, 9.8955, 0.5046387
0.3416897, -0.0132601, 0.412875, -0.0486763, 9.909, 0.708374, 9.909, -0.2582397, 9.909, -0.4202881, 9.909, 0.5048828
0.3421552, -0.0125887, 0.4134375, -0.0365911, 9.9225, 0.7190552, 9.9225, -0.2484741, 9.9225, -0.4071045, 9.9225, 0.5054932
0.3426207, -0.0112459, 0.414, -0.0151064, 9.936, 0.7245483, 9.936, -0.2434082, 9.936, -0.4000244, 9.936, 0.5057373
0.3430862, -0.0099031, 0.4145625, 0.0124208, 9.9495, 0.7303467, 9.9495, -0.2382812, 9.9495, -0.3922729, 9.9495, 0.5059204
0.3435517, -0.0092317, 0.415125, 0.0446479, 9.963, 0.7417603, 9.963, -0.2263794, 9.963, -0.3764038, 9.963, 0.5068359
0.3440172, -0.0097353, 0.4156875, 0.0627756, 9.9765, 0.7468872, 9.9765, -0.2190552, 9.9765, -0.3693848, 9.9765, 0.5076904
0.3444828, -0.0099031, 0.41625, 0.0500191, 9.99, 0.7575684, 9.99, -0.2032471, 9.99, -0.3536377, 9.99, 0.5096436
0.3449483, -0.0087282, 0.4168125, 0.0097353, 10.0035, 0.7629395, 10.0035, -0.1950073, 10.0035, -0.3453369, 10.0035, 0.5105591
0.3454138, -0.0075532, 0.417375, -0.0332341, 10.017, 0.7681274, 10.017, -0.1866455, 10.017, -0.336853, 10.017, 0.5114746
0.3458793, -0.0075532, 0.4179375, -0.0641184, 10.0305, 0.7788086, 10.0305, -0.1697998, 10.0305, -0.3186035, 10.0305, 0.5130005
0.3463448, -0.0095674, 0.4185, -0.0986954, 10.044, 0.7835693, 10.044, -0.1607056, 10.044, -0.3099976, 10.044, 0.513916
0.3468103, -0.0112459, 0.4190625, -0.1349508, 10.0575, 0.7884521, 10.0575, -0.1513672, 10.0575, -0.3010254, 10.0575, 0.5146484
0.3472759, -0.0104067, 0.419625, -0.1574426, 10.071, 0.7971802, 10.071, -0.131958, 10.071, -0.2833862, 10.071, 0.5164795
0.3477414, -0.008896, 0.4201875, -0.1540856, 10.0845, 0.8015747, 10.0845, -0.1226196, 10.0845, -0.2734375, 10.0845, 0.517334
0.3482069, -0.0083925, 0.42075, -0.1138018, 10.098, 0.8093262, 10.098, -0.1027222, 10.098, -0.2537231, 10.098, 0.5197144
0.3486724, -0.0102388, 0.4213125, -0.0590829, 10.1115, 0.8130493, 10.1115, -0.0923462, 10.1115, -0.2436523, 10.1115, 0.5205688
0.3491379, -0.011078, 0.421875, -0.0218204, 10.125, 0.8167114, 10.125, -0.0819092, 10.125, -0.2329712, 10.125, 0.5215454
0.3496034, -0.0104067, 0.4224375, -0.0164492, 10.1385, 0.8224487, 10.1385, -0.0604248, 10.1385, -0.2146606, 10.1385, 0.5233154
0.350069, -0.0102388, 0.423, -0.0255131, 10.152, 0.8249512, 10.152, -0.0493774, 10.152, -0.2052612, 10.152, 0.524231
0.3505345, -0.0092317, 0.4235625, -0.027863, 10.1655, 0.8292847, 10.1655, -0.0270386, 10.1655, -0.1859131, 10.1655, 0.5262451
0.351, -0.0072175, 0.424125, -0.0234989, 10.179, 0.8308105, 10.179, -0.0148926, 10.179, -0.1771851, 10.179, 0.5273438
0.3514655, -0.0072175, 0.4246875, -0.0171206, 10.1925, 0.8319702, 10.1925, -0.0021362, 10.1925, -0.1698608, 10.1925, 0.5281982
0.351931, -0.0072175, 0.42525, -0.0157778, 10.206, 0.8339233, 10.206, 0.0220337, 10.206, -0.1529541, 10.206, 0.5297852
0.3523966, -0.0065461, 0.4258125, -0.0191348, 10.2195, 0.8344727, 10.2195, 0.0334473, 10.2195, -0.1438599, 10.2195, 0.5309448
0.3528621, -0.0062104, 0.426375, -0.0258488, 10.233, 0.8349609, 10.233, 0.0576782, 10.233, -0.1276855, 10.233, 0.5321655
0.3533276, -0.0068818, 0.4269375, -0.0265202, 10.2465, 0.8347778, 10.2465, 0.0703735, 10.2465, -0.1203003, 10.2465, 0.5326538
0.3537931, -0.0070497, 0.4275, -0.0238346, 10.26, 0.8342896, 10.26, 0.0838623, 10.26, -0.1140747, 10.26, 0.5328369
0.3542586, -0.0062104, 0.4280625, -0.0218204, 10.2735, 0.8323975, 10.2735, 0.1119385, 10.2735, -0.1016235, 10.2735, 0.5331421
0.3547241, -0.005539, 0.428625, -0.0208133, 10.287, 0.8309326, 10.287, 0.1266479, 10.287, -0.0962524, 10.287, 0.5331421
0.3551897, -0.0050355, 0.4291875, -0.0248417, 10.3005, 0.8274536, 10.3005, 0.1571045, 10.3005, -0.0874634, 10.3005, 0.5319214
0.3556552, -0.0052033, 0.42975, -0.0271916, 10.314, 0.8254395, 10.314, 0.1726685, 10.314, -0.0839844, 10.314, 0.5308228
0.3561207, -0.0048676, 0.4303125, -0.0224918, 10.3275, 0.8225098, 10.3275, 0.1906738, 10.3275, -0.0826416, 10.3275, 0.5294189
0.3565862, -0.0041962, 0.430875, -0.0198062, 10.341, 0.8165283, 10.341, 0.2285156, 10.341, -0.0845337, 10.341, 0.5233765
0.3570517, -0.0058747, 0.4314375, -0.0204776, 10.3545, 0.8137207, 10.3545, 0.2463379, 10.3545, -0.0830688, 10.3545, 0.5198975
0.3575172, -0.0068818, 0.432, -0.0198062, 10.368, 0.8106689, 10.368, 0.2627563, 10.368, -0.0806885, 10.368, 0.5169678
0.3579828, -0.0070497, 0.4325625, -0.017792, 10.3815, 0.8045044, 10.3815, 0.291748, 10.3815, -0.0714722, 10.3815, 0.5123901
0.3584483, -0.0072175, 0.433125, -0.0161135, 10.395, 0.8014526, 10.395, 0.3057251, 10.395, -0.0658569, 10.395, 0.5097656
0.3589138, -0.0082246, 0.4336875, -0.0184634, 10.4085, 0.7952271, 10.4085, 0.3309937, 10.4085, -0.0540771, 10.4085, 0.5050659
0.3593793, -0.0078889, 0.43425, -0.0171206, 10.422, 0.7918701, 10.422, 0.3426514, 10.422, -0.0472412, 10.422, 0.5032349
0.3598448, -0.0085603, 0.4348125, -0.0140993, 10.4355, 0.7883301, 10.4355, 0.3538818, 10.4355, -0.0394287, 10.4355, 0.50177
0.3603103, -0.0102388, 0.435375, -0.0137636, 10.449, 0.7805176, 10.449, 0.3760986, 10.449, -0.024231, 10.449, 0.4987183
0.3607759, -0.0109102, 0.4359375, -0.0157778, 10.4625, 0.7765503, 10.4625, 0.3868408, 10.4625, -0.0172119, 10.4625, 0.4970093
0.3612414, -0.0102388, 0.4365, -0.0157778, 10.476, 0.7682495, 10.476, 0.4075317, 10.476, -0.003479, 10.476, 0.4936523
0.3617069, -0.0104067, 0.4370625, -0.0164492, 10.4895, 0.7637329, 10.4895, 0.4178467, 10.4895, 0.003479, 10.4895, 0.4920654
0.3621724, -0.0119173, 0.437625, -0.0137636, 10.503, 0.7595215, 10.503, 0.4280396, 10.503, 0.0101929, 10.503, 0.4896851
0.3626379, -0.0135958, 0.4381875, -0.0070497, 10.5165, 0.7514038, 10.5165, 0.446106, 10.5165, 0.0253296, 10.5165, 0.4854736
0.3631034, -0.0149386, 0.43875, -0.0026856, 10.53, 0.7476196, 10.53, 0.4543457, 10.53, 0.0332031, 10.53, 0.4832764
0.363569, -0.0154421, 0.4393125, 0.0010071, 10.5435, 0.7398071, 10.5435, 0.4692993, 10.5435, 0.0493774, 10.5435, 0.4796143
0.3640345, -0.01561, 0.439875, 0.0036927, 10.557, 0.7355347, 10.557, 0.4768066, 10.557, 0.0577393, 10.557, 0.4777832
0.3645, -0.01561, 0.4404375, 0.0077211, 10.5705, 0.7315063, 10.5705, 0.4842529, 10.5705, 0.0654297, 10.5705, 0.4755249
0.3649655, -0.0149386, 0.441, 0.0083925, 10.584, 0.7223511, 10.584, 0.4987793, 10.584, 0.0819092, 10.584, 0.4719849
0.365431, -0.0132601, 0.4415625, 0.0083925, 10.5975, 0.7173462, 10.5975, 0.5046387, 10.5975, 0.0916748, 10.5975, 0.4715576
0.3658966, -0.0115816, 0.442125, 0.0030213, 10.611, 0.7120972, 10.611, 0.5101318, 10.611, 0.1019897, 10.611, 0.4714355
0.3663621, -0.0119173, 0.4426875, -0.0060426, 10.6245, 0.7032471, 10.6245, 0.5218506, 10.6245, 0.1176758, 10.6245, 0.4682007
0.3668276, -0.0115816, 0.44325, -0.0090639, 10.638, 0.699585, 10.638, 0.5281982, 10.638, 0.1229248, 10.638, 0.465271
0.3672931, -0.0112459, 0.4438125, -0.0070497, 10.6515, 0.6918335, 10.6515, 0.5384521, 10.6515, 0.1342163, 10.6515, 0.4620361
0.3677586, -0.0119173, 0.444375, -0.0097353, 10.665, 0.6878052, 10.665, 0.5428467, 10.665, 0.1396484, 10.665, 0.4612427
0.3682241, -0.0119173, 0.4449375, -0.0218204, 10.6785, 0.6836548, 10.6785, 0.546814, 10.6785, 0.1450195, 10.6785, 0.4609985
0.3686897, -0.0117494, 0.4455, -0.042298, 10.692, 0.6752319, 10.692, 0.5530396, 10.692, 0.1566772, 10.692, 0.4622192
0.3691552, -0.0119173, 0.4460625, -0.0607614, 10.7055, 0.6716919, 10.7055, 0.5552368, 10.7055, 0.161499, 10.7055, 0.4631348
0.3696207, -0.0115816, 0.446625, -0.070161, 10.719, 0.668396, 10.719, 0.5587769, 10.719, 0.1647339, 10.719, 0.4624634
0.3700862, -0.0109102, 0.4471875, -0.0721752, 10.7325, 0.6679688, 10.7325, 0.5587769, 10.7325, 0.1651611, 10.7325, 0.4628906
0.3705517, -0.0102388, 0.44775, -0.0718395, 10.746, 0.668457, 10.746, 0.5583496, 10.746, 0.1640015, 10.746, 0.4631958
0.3710172, -0.0102388, 0.4483125, -0.0674754, 10.7595, 0.6705933, 10.7595, 0.5543213, 10.7595, 0.1599121, 10.7595, 0.4663696
0.3714828, -0.0099031, 0.448875, -0.0557259, 10.773, 0.6723633, 10.773, 0.5510864, 10.773, 0.15625, 10.773, 0.4688721
0.3719483, -0.0099031, 0.4494375, -0.0500191, 10.7865, 0.6784058, 10.7865, 0.5439453, 10.7865, 0.1436157, 10.7865, 0.4724731
0.3724138, -0.0099031, 0.45, -0.0483406, 10.8, 0.682251, 10.8, 0.5392456, 10.8, 0.1360474, 10.8, 0.4745483
0.3728793, -0.008896, 0.4505625, -0.0453193, 10.8135, 0.6864014, 10.8135, 0.5343628, 10.8135, 0.1273193, 10.8135, 0.4765625
0.3733448, -0.0102388, 0.451125, -0.0379339, 10.827, 0.6957397, 10.827, 0.5223389, 10.827, 0.1090088, 10.827, 0.480896
0.3738103, -0.012253, 0.4516875, -0.0339055, 10.8405, 0.7008667, 10.8405, 0.5155029, 10.8405, 0.0992432, 10.8405, 0.4829102
0.3742759, -0.0125887, 0.45225, -0.0298772, 10.854, 0.711853, 10.854, 0.5006104, 10.854, 0.0779419, 10.854, 0.4863892
0.3747414, -0.012253, 0.4528125, -0.0218204, 10.8675, 0.7174072, 10.8675, 0.4923706, 10.8675, 0.0669556, 10.8675, 0.4882812
0.3752069, -0.0115816, 0.453375, -0.0198062, 10.881, 0.7229614, 10.881, 0.4835205, 10.881, 0.0559082, 10.881, 0.4902954
0.3756724, -0.0115816, 0.4539375, -0.0208133, 10.8945, 0.7335205, 10.8945, 0.4641113, 10.8945, 0.0357056, 10.8945, 0.4951782
0.3761379, -0.0119173, 0.4545, -0.0285344, 10.908, 0.7383423, 10.908, 0.4539795, 10.908, 0.0264282, 10.908, 0.4980469
0.3766034, -0.012253, 0.4550625, -0.0453193, 10.9215, 0.743042, 10.9215, 0.4448242, 10.9215, 0.0158691, 10.9215, 0.4997559
0.377069, -0.0117494, 0.455625, -0.0574044, 10.935, 0.7510986, 10.935, 0.4266968, 10.935, -0.0054932, 10.935, 0.5036621
0.3775345, -0.0099031, 0.4561875, -0.0594186, 10.9485, 0.7543335, 10.9485, 0.4178467, 10.9485, -0.0151978, 10.9485, 0.5061035
0.378, -0.0092317, 0.45675, -0.0503548, 10.962, 0.760498, 10.962, 0.3986206, 10.962, -0.0321045, 10.962, 0.5115967
0.3784655, -0.0092317, 0.4573125, -0.0392767, 10.9755, 0.7635498, 10.9755, 0.3883057, 10.9755, -0.0397339, 10.9755, 0.5144043
0.378931, -0.0092317, 0.457875, -0.0271916, 10.989, 0.7667847, 10.989, 0.3775635, 10.989, -0.0466919, 10.989, 0.5170288
0.3793966, -0.008896, 0.4584375, -0.0083925, 11.0025, 0.7720337, 11.0025, 0.357605, 11.0025, -0.0601807, 11.0025, 0.5219116
0.3798621, -0.0078889, 0.459, 0.021149, 11.016, 0.7744751, 11.016, 0.3484497, 11.016, -0.0679932, 11.016, 0.5236206
0.3803276, -0.0062104, 0.4595625, 0.0604257, 11.0295, 0.7789307, 11.0295, 0.3301392, 11.0295, -0.0830078, 11.0295, 0.5266724
0.3807931, -0.005539, 0.460125, 0.0956741, 11.043, 0.781311, 11.043, 0.3201294, 11.043, -0.0888672, 11.043, 0.5283813
0.3812586, -0.0082246, 0.4606875, 0.109102, 11.0565, 0.7836304, 11.0565, 0.3096924, 11.0565, -0.0939331, 11.0565, 0.5303345
0.3817241, -0.0105745, 0.46125, 0.1171588, 11.07, 0.7877808, 11.07, 0.2903442, 11.07, -0.1062012, 11.07, 0.5327759
0.3821897, -0.0102388, 0.4618125, 0.1094377, 11.0835, 0.7896729, 11.0835, 0.2817993, 11.0835, -0.1133423, 11.0835, 0.5330811
0.3826552, -0.008896, 0.462375, 0.063447, 11.097, 0.7930908, 11.097, 0.2623901, 11.097, -0.1235962, 11.097, 0.5356445
0.3831207, -0.0082246, 0.4629375, -0.0140993, 11.1105, 0.7946777, 11.1105, 0.2515869, 11.1105, -0.1258545, 11.1105, 0.5379639
0.3835862, -0.0083925, 0.4635, -0.1067521, 11.124, 0.7962036, 11.124, 0.2403564, 11.124, -0.1281738, 11.124, 0.5402832
0.3840517, -0.0080568, 0.4640625, -0.18262, 11.1375, 0.7987671, 11.1375, 0.2209473, 11.1375, -0.1358032, 11.1375, 0.5428467
0.3845172, -0.0082246, 0.464625, -0.2108186, 11.151, 0.7999268, 11.151, 0.211792, 11.151, -0.1403809, 11.151, 0.5436401
0.3849828, -0.0092317, 0.4651875, -0.1983978, 11.1645, 0.8010864, 11.1645, 0.2028198, 11.1645, -0.1455688, 11.1645, 0.5440063
0.3854483, -0.0090639, 0.46575, -0.1601282, 11.178, 0.8037109, 11.178, 0.1825562, 11.178, -0.1513062, 11.178, 0.5457153
0.3859138, -0.0092317, 0.4663125, -0.1198444, 11.1915, 0.8047485, 11.1915, 0.1727905, 11.1915, -0.1530151, 11.1915, 0.546936
0.3863793, -0.0104067, 0.466875, -0.0903029, 11.205, 0.8057861, 11.205, 0.1564941, 11.205, -0.1613159, 11.205, 0.5479126
0.3868448, -0.0130922, 0.4674375, -0.063447, 11.2185, 0.8062744, 11.2185, 0.1484985, 11.2185, -0.1646729, 11.2185, 0.5484619
0.3873103, -0.0135958, 0.468, -0.0359197, 11.232, 0.8062134, 11.232, 0.1401978, 11.232, -0.1682739, 11.232, 0.5495605
0.3877759, -0.012253, 0.4685625, -0.0151064, 11.2455, 0.8064575, 11.2455, 0.1236572, 11.2455, -0.1746826, 11.2455, 0.5512085
0.3882414, -0.011078, 0.469125, -0.0077211, 11.259, 0.8062744, 11.259, 0.1157227, 11.259, -0.1785278, 11.259, 0.5519409
0.3887069, -0.0104067, 0.4696875, -0.0097353, 11.2725, 0.8056641, 11.2725, 0.0997925, 11.2725, -0.1850586, 11.2725, 0.553772
0.3891724, -0.010071, 0.47025, -0.0117494, 11.286, 0.8049316, 11.286, 0.0928345, 11.286, -0.1896362, 11.286, 0.5545654
0.3896379, -0.0099031, 0.4708125, -0.0114137, 11.2995, 0.8041382, 11.2995, 0.0864868, 11.2995, -0.1948242, 11.2995, 0.5549316
0.3901034, -0.0104067, 0.471375, -0.011078, 11.313, 0.8025513, 11.313, 0.0714111, 11.313, -0.2022095, 11.313, 0.5567017
0.390569, -0.0097353, 0.4719375, -0.0087282, 11.3265, 0.8014526, 11.3265, 0.0639648, 11.3265, -0.2056885, 11.3265, 0.5579834
0.3910345, -0.0087282, 0.4725, -0.0073854, 11.34, 0.7990723, 11.34, 0.0508423, 11.34, -0.2153931, 11.34, 0.559021
0.3915, -0.0082246, 0.4730625, -0.0087282, 11.3535, 0.7978516, 11.3535, 0.0440674, 11.3535, -0.220459, 11.3535, 0.5593872
0.3919655, -0.0102388, 0.473625, -0.0090639, 11.367, 0.7966919, 11.367, 0.0369263, 11.367, -0.2247925, 11.367, 0.5598145
0.392431, -0.0129244, 0.4741875, -0.0070497, 11.3805, 0.7942505, 11.3805, 0.0223389, 11.3805, -0.2322998, 11.3805, 0.5609741
0.3928966, -0.012253, 0.47475, -0.0046998, 11.394, 0.7924805, 11.394, 0.0158691, 11.394, -0.2365723, 11.394, 0.5618896
0.3933621, -0.0124208, 0.4753125, -0.0030213, 11.4075, 0.7906494, 11.4075, 0.0098267, 11.4075, -0.2416992, 11.4075, 0.5625
0.3938276, -0.0129244, 0.475875, 0.0020142, 11.421, 0.7863159, 11.421, -0.0018921, 11.421, -0.2526245, 11.421, 0.5637817
0.3942931, -0.0129244, 0.4764375, 0.0036927, 11.4345, 0.7843018, 11.4345, -0.0079956, 11.4345, -0.2574463, 11.4345, 0.5643921
0.3947586, -0.0125887, 0.477, -0.0016785, 11.448, 0.7804565, 11.448, -0.0213623, 11.448, -0.265564, 11.448, 0.5656128
0.3952241, -0.0124208, 0.4775625, -0.0087282, 11.4615, 0.7786255, 11.4615, -0.02771, 11.4615, -0.2695312, 11.4615, 0.565979
0.3956897, -0.0112459, 0.478125, -0.0134279, 11.475, 0.7766724, 11.475, -0.0334473, 11.475, -0.2741089, 11.475, 0.5661621
0.3961552, -0.0092317, 0.4786875, -0.0191348, 11.4885, 0.7722778, 11.4885, -0.0438843, 11.4885, -0.2843628, 11.4885, 0.5664062
0.3966207, -0.0078889, 0.47925, -0.0234989, 11.502, 0.7698975, 11.502, -0.0488892, 11.502, -0.289978, 11.502, 0.5664062
0.3970862, -0.0082246, 0.4798125, -0.0191348, 11.5155, 0.7657471, 11.5155, -0.0608521, 11.5155, -0.2988892, 11.5155, 0.5662231
0.3975517, -0.0095674, 0.480375, -0.0030213, 11.529, 0.7636108, 11.529, -0.0669556, 11.529, -0.3032227, 11.529, 0.5661011
0.3980172, -0.0095674, 0.4809375, 0.0332341, 11.5425, 0.7612305, 11.5425, -0.0722046, 11.5425, -0.3086548, 11.5425, 0.5657349
0.3984828, -0.0077211, 0.4815, 0.0678111, 11.556, 0.7565308, 11.556, -0.0831299, 11.556, -0.3190918, 11.556, 0.5647583
0.3989483, -0.0062104, 0.4820625, 0.0721752, 11.5695, 0.7541504, 11.5695, -0.0887451, 11.5695, -0.3239136, 11.5695, 0.5643311
0.3994138, -0.0077211, 0.482625, 0.0399481, 11.583, 0.7496948, 11.583, -0.1008301, 11.583, -0.3320923, 11.583, 0.5635376
0.3998793, -0.0095674, 0.4831875, -0.0073854, 11.5965, 0.7472534, 11.5965, -0.1066895, 11.5965, -0.3363647, 11.5965, 0.5631104
0.4003448, -0.0097353, 0.48375, -0.0426337, 11.61, 0.7449341, 11.61, -0.1124878, 11.61, -0.3405762, 11.61, 0.562561
0.4008103, -0.0102388, 0.4843125, -0.063447, 11.6235, 0.739563, 11.6235, -0.1235962, 11.6235, -0.3502197, 11.6235, 0.5613403
0.4012759, -0.0105745, 0.484875, -0.0842603, 11.637, 0.7368774, 11.637, -0.1292725, 11.637, -0.3551025, 11.637, 0.5605469
0.4017414, -0.0092317, 0.4854375, -0.1097734, 11.6505, 0.7318115, 11.6505, -0.1409912, 11.6505, -0.3638916, 11.6505, 0.5587158
0.4022069, -0.0085603, 0.486, -0.1319295, 11.664, 0.7293091, 11.664, -0.1466064, 11.664, -0.3681641, 11.664, 0.5578003
0.4026724, -0.0095674, 0.4865625, -0.1315938, 11.6775, 0.7266846, 11.6775, -0.1516724, 11.6775, -0.3726807, 11.6775, 0.5568237
0.4031379, -0.011078, 0.487125, -0.1030594, 11.691, 0.7209473, 11.691, -0.1615601, 11.691, -0.381958, 11.691, 0.5552368
0.4036034, -0.0109102, 0.4876875, -0.0641184, 11.7045, 0.7182617, 11.7045, -0.1665649, 11.7045, -0.3862305, 11.7045, 0.5542603
0.404069, -0.0095674, 0.48825, -0.0325628, 11.718, 0.7156982, 11.718, -0.1717529, 11.718, -0.3900146, 11.718, 0.5533447
0.4045345, -0.0095674, 0.4888125, -0.0167849, 11.7315, 0.710083, 11.7315, -0.1818848, 11.7315, -0.3980103, 11.7315, 0.5515747
0.405, -0.0102388, 0.489375, -0.0231632, 11.745, 0.7074585, 11.745, -0.1867676, 11.745, -0.4017944, 11.745, 0.5505981
0.4054655, -0.0102388, 0.4899375, -0.0352483, 11.7585, 0.7022705, 11.7585, -0.1963501, 11.7585, -0.4090576, 11.7585, 0.548584
0.405931, -0.0082246, 0.4905, -0.0345769, 11.772, 0.6992188, 11.772, -0.2001953, 11.772, -0.4136963, 11.772, 0.5476685
0.4063966, -0.0065461, 0.4910625, -0.0224918, 11.7855, 0.696167, 11.7855, -0.2040405, 11.7855, -0.4182739, 11.7855, 0.5465698
0.4068621, -0.0068818, 0.491625, -0.0097353, 11.799, 0.6901245, 11.799, -0.2124023, 11.799, -0.4272461, 11.799, 0.5441284
0.4073276, -0.0075532, 0.4921875, -0.0023499, 11.8125, 0.6870117, 11.8125, -0.2164917, 11.8125, -0.4317627, 11.8125, 0.5428467
0.4077931, -0.0075532, 0.49275, -0.0020142, 11.826, 0.6813965, 11.826, -0.223877, 11.826, -0.4400024, 11.826, 0.5402832
0.4082586, -0.0075532, 0.4933125, -0.0124208, 11.8395, 0.6784668, 11.8395, -0.2268677, 11.8395, -0.444458, 11.8395, 0.5391235
0.4087241, -0.0083925, 0.493875, -0.024506, 11.853, 0.6757202, 11.853, -0.2301025, 11.853, -0.4484253, 11.853, 0.5379639
0.4091897, -0.0085603, 0.4944375, -0.024506, 11.8665, 0.6708374, 11.8665, -0.2374268, 11.8665, -0.454834, 11.8665, 0.5354614
0.4096552, -0.0085603, 0.495, -0.017792, 11.88, 0.6686401, 11.88, -0.2409668, 11.88, -0.4577026, 11.88, 0.5341797
0.4101207, -0.0083925, 0.4955625, -0.014435, 11.8935, 0.6642456, 11.8935, -0.2473755, 11.8935, -0.4637451, 11.8935, 0.5315552
0.4105862, -0.0073854, 0.496125, -0.0140993, 11.907, 0.6618652, 11.907, -0.2503052, 11.907, -0.46698, 11.907, 0.5302734
0.4110517, -0.0075532, 0.4966875, -0.0167849, 11.9205, 0.6595459, 11.9205, -0.2533569, 11.9205, -0.4699707, 11.9205, 0.5291138
0.4115172, -0.0109102, 0.49725, -0.0164492, 11.934, 0.6555176, 11.934, -0.2610474, 11.934, -0.4744263, 11.934, 0.5263672
0.4119828, -0.0127565, 0.4978125, -0.0157778, 11.9475, 0.6536865, 11.9475, -0.2653198, 11.9475, -0.4759521, 11.9475, 0.5250854
0.4124483, -0.0109102, 0.498375, -0.017792, 11.961, 0.6517944, 11.961, -0.269043, 11.961, -0.4777222, 11.961, 0.5239868
0.4129138, -0.0102388, 0.4989375, -0.021149, 11.9745, 0.6479492, 11.9745, -0.2756348, 11.9745, -0.4815063, 11.9745, 0.5219116
0.4133793, -0.0102388, 0.4995, -0.0251774, 11.988, 0.6459961, 11.988, -0.2788696, 11.988, -0.4834595, 11.988, 0.520752
0.4138448, -0.0109102, 0.5000625, -0.0251774, 12.0015, 0.6416626, 12.0015, -0.2855225, 12.0015, -0.4876709, 12.0015, 0.5185547
0.4143103, -0.0104067, 0.500625, -0.024506, 12.015, 0.6399536, 12.015, -0.2895508, 12.015, -0.4889526, 12.015, 0.5172119
0.4147759, -0.008896, 0.5011875, -0.0271916, 12.0285, 0.6386108, 12.0285, -0.2938843, 12.0285, -0.489624, 12.0285, 0.5158081
0.4152414, -0.0077211, 0.50175, -0.0255131, 12.042, 0.6356201, 12.042, -0.3013306, 12.042, -0.4917603, 12.042, 0.5131836
0.4157069, -0.0082246, 0.5023125, -0.0238346, 12.0555, 0.6339722, 12.0555, -0.3047485, 12.0555, -0.493042, 12.0555, 0.5119629
0.4161724, -0.0092317, 0.502875, -0.0238346, 12.069, 0.6304321, 12.069, -0.3114624, 12.069, -0.4958496, 12.069, 0.5095825
0.4166379, -0.0105745, 0.5034375, -0.024506, 12.0825, 0.6281738, 12.0825, -0.3145752, 12.0825, -0.4977417, 12.0825, 0.508606
0.4171034, -0.0109102, 0.504, -0.024506, 12.096, 0.6259155, 12.096, -0.317688, 12.096, -0.4996338, 12.096, 0.5076294
0.417569, -0.0099031, 0.5045625, -0.0238346, 12.1095, 0.6220093, 12.1095, -0.3239746, 12.1095, -0.5025635, 12.1095, 0.5055542
0.4180345, -0.0095674, 0.505125, -0.0204776, 12.123, 0.6201782, 12.123, -0.3270264, 12.123, -0.5038452, 12.123, 0.5045776
0.4185, -0.0090639, 0.5056875, -0.0184634, 12.1365, 0.6174316, 12.1365, -0.333374, 12.1365, -0.5054321, 12.1365, 0.5021362
0.4189655, -0.0085603, 0.50625, -0.0124208, 12.15, 0.6162109, 12.15, -0.3364868, 12.15, -0.5061035, 12.15, 0.5009155
0.419431, -0.0082246, 0.5068125, -0.0097353, 12.1635, 0.6149902, 12.1635, -0.3395996, 12.1635, -0.5068359, 12.1635, 0.4995728
0.4198966, -0.0082246, 0.507375, -0.0208133, 12.177, 0.6121216, 12.177, -0.3452148, 12.177, -0.508667, 12.177, 0.4974365
0.4203621, -0.0097353, 0.5079375, -0.0345769, 12.1905, 0.6104736, 12.1905, -0.3477173, 12.1905, -0.5096436, 12.1905, 0.4967041
0.4208276, -0.0109102, 0.5085, -0.0365911, 12.204, 0.6071167, 12.204, -0.352356, 12.204, -0.5115967, 12.204, 0.4955444
0.4212931, -0.0112459, 0.5090625, -0.0255131, 12.2175, 0.6055908, 12.2175, -0.3547363, 12.2175, -0.5124512, 12.2175, 0.494751
0.4217586, -0.0115816, 0.509625, -0.0164492, 12.231, 0.604126, 12.231, -0.3572388, 12.231, -0.5133057, 12.231, 0.4938354
0.4222241, -0.0104067, 0.5101875, -0.0201419, 12.2445, 0.6004639, 12.2445, -0.3614502, 12.2445, -0.5158691, 12.2445, 0.4926147
0.4226897, -0.008896, 0.51075, -0.0261845, 12.258, 0.5985718, 12.258, -0.3635254, 12.258, -0.5171509, 12.258, 0.4920044
0.4231552, -0.0078889, 0.5113125, -0.0275273, 12.2715, 0.5969238, 12.2715, -0.3654785, 12.2715, -0.5182495, 12.2715, 0.4914551
0.4236207, -0.008896, 0.511875, -0.0281987, 12.285, 0.5940552, 12.285, -0.3684082, 12.285, -0.5203247, 12.285, 0.4905396
0.4240862, -0.0105745, 0.5124375, -0.027863, 12.2985, 0.5927124, 12.2985, -0.3695679, 12.2985, -0.5214233, 12.2985, 0.4901123
0.4245517, -0.0129244, 0.513, -0.0285344, 12.312, 0.590332, 12.312, -0.371521, 12.312, -0.5234375, 12.312, 0.4893799
0.4250172, -0.0161135, 0.5135625, -0.0339055, 12.3255, 0.5892944, 12.3255, -0.3724976, 12.3255, -0.524353, 12.3255, 0.4888916
0.4254828, -0.0179599, 0.514125, -0.0379339, 12.339, 0.5883789, 12.339, -0.3736572, 12.339, -0.5249634, 12.339, 0.4884644
0.4259483, -0.0159457, 0.5146875, -0.0412909, 12.3525, 0.5863647, 12.3525, -0.3751831, 12.3525, -0.5262451, 12.3525, 0.4883423
0.4264138, -0.0146029, 0.51525, -0.0419623, 12.366, 0.5856934, 12.366, -0.3759155, 12.366, -0.5265503, 12.366, 0.4882812
0.4268793, -0.0135958, 0.5158125, -0.0419623, 12.3795, 0.585144, 12.3795, -0.3765259, 12.3795, -0.5267334, 12.3795, 0.4882202
0.4273448, -0.0129244, 0.516375, -0.0453193, 12.393, 0.585144, 12.393, -0.3762817, 12.393, -0.5267334, 12.393, 0.4884033
0.4278103, -0.012253, 0.5169375, -0.0486763, 12.4065, 0.585144, 12.4065, -0.3756104, 12.4065, -0.5268555, 12.4065, 0.4887695
0.4282759, -0.0102388, 0.5175, -0.0486763, 12.42, 0.5861206, 12.42, -0.3738403, 12.42, -0.5265503, 12.42, 0.4893188
0.4287414, -0.0080568, 0.5180625, -0.0453193, 12.4335, 0.5873413, 12.4335, -0.3726196, 12.4335, -0.5256348, 12.4335, 0.4898071
0.4292069, -0.0058747, 0.518625, -0.0339055, 12.447, 0.5917358, 12.447, -0.369873, 12.447, -0.5219727, 12.447, 0.4904175
0.4296724, -0.0062104, 0.5191875, -0.0234989, 12.4605, 0.5941772, 12.4605, -0.3676758, 12.4605, -0.5203857, 12.4605, 0.4908447
0.4301379, -0.0082246, 0.51975, -0.0184634, 12.474, 0.5968628, 12.474, -0.3650513, 12.474, -0.5187988, 12.474, 0.491272
0.4306034, -0.0097353, 0.5203125, -0.0124208, 12.4875, 0.6029663, 12.4875, -0.359436, 12.4875, -0.5146484, 12.4875, 0.4923706
0.431069, -0.0085603, 0.520875, -0.0063783, 12.501, 0.605957, 12.501, -0.3565674, 12.501, -0.5123291, 12.501, 0.4931641
0.4315345, -0.0072175, 0.5214375, -0.0003357, 12.5145, 0.609436, 12.5145, -0.3538818, 12.5145, -0.5095215, 12.5145, 0.4937134
0.432, -0.0073854, 0.522, 0.0060426, 12.528, 0.618103, 12.528, -0.3488159, 12.528, -0.5021973, 12.528, 0.4940186
0.4324655, -0.0095674, 0.5225625, 0.0114137, 12.5415, 0.6235352, 12.5415, -0.3461914, 12.5415, -0.4974365, 12.5415, 0.4938965
0.432931, -0.0097353, 0.523125, 0.0198062, 12.555, 0.6346436, 12.555, -0.3389282, 12.555, -0.4882202, 12.555, 0.4938965
0.4333966, -0.0082246, 0.5236875, 0.0325628, 12.5685, 0.6396484, 12.5685, -0.3342896, 12.5685, -0.4845581, 12.5685, 0.4942627
0.4338621, -0.0082246, 0.52425, 0.0409552, 12.582, 0.6447144, 12.582, -0.3297119, 12.582, -0.4805298, 12.582, 0.4946899
0.4343276, -0.0092317, 0.5248125, 0.0288701, 12.5955, 0.6568604, 12.5955, -0.3214722, 12.5955, -0.4693604, 12.5955, 0.494873
0.4347931, -0.0087282, 0.525375, -0.0036927, 12.609, 0.6638184, 12.609, -0.3173828, 12.609, -0.4625244, 12.609, 0.4946289
0.4352586, -0.0090639, 0.5259375, -0.0406195, 12.6225, 0.678833, 12.6225, -0.3084106, 12.6225, -0.4470215, 12.6225, 0.4941406
0.4357241, -0.0109102, 0.5265, -0.0755322, 12.636, 0.6862183, 12.636, -0.3027344, 12.636, -0.4394531, 12.636, 0.4943237
0.4361897, -0.0115816, 0.5270625, -0.0943313, 12.6495, 0.6934204, 12.6495, -0.2963257, 12.6495, -0.4320068, 12.6495, 0.4946899
0.4366552, -0.011078, 0.527625, -0.0970169, 12.663, 0.708313, 12.663, -0.2832642, 12.663, -0.4150391, 12.663, 0.4957886
0.4371207, -0.0097353, 0.5281875, -0.0916457, 12.6765, 0.71521, 12.6765, -0.2758789, 12.6765, -0.4073486, 12.6765, 0.4963989
0.4375862, -0.0077211, 0.52875, -0.0772107, 12.69, 0.7294312, 12.69, -0.2613525, 12.69, -0.3903809, 12.69, 0.4972534
0.4380517, -0.0057069, 0.5293125, -0.063447, 12.7035, 0.7365112, 12.7035, -0.2541504, 12.7035, -0.3811646, 12.7035, 0.4976807
0.4385172, -0.0062104, 0.529875, -0.0547189, 12.717, 0.743042, 12.717, -0.24646, 12.717, -0.3724976, 12.717, 0.4983521
0.4389828, -0.0082246, 0.5304375, -0.0436408, 12.7305, 0.7564697, 12.7305, -0.2312012, 12.7305, -0.3536377, 12.7305, 0.4992676
0.4394483, -0.0073854, 0.531, -0.0285344, 12.744, 0.7631836, 12.744, -0.2232056, 12.744, -0.3435059, 12.744, 0.4997559
0.4399138, -0.0060426, 0.5315625, -0.0164492, 12.7575, 0.7699585, 12.7575, -0.2148438, 12.7575, -0.3328247, 12.7575, 0.5001831
0.4403793, -0.0068818, 0.532125, -0.0077211, 12.771, 0.7827759, 12.771, -0.1970825, 12.771, -0.312561, 12.771, 0.5007324
0.4408448, -0.0068818, 0.5326875, -0.011078, 12.7845, 0.7888184, 12.7845, -0.1879883, 12.7845, -0.302063, 12.7845, 0.5011597
0.4413103, -0.0063783, 0.53325, -0.0285344, 12.798, 0.800415, 12.798, -0.1696777, 12.798, -0.2790527, 12.798, 0.5026245
0.4417759, -0.0082246, 0.5338125, -0.0480049, 12.8115, 0.8057861, 12.8115, -0.159668, 12.8115, -0.2676392, 12.8115, 0.5036011
0.4422414, -0.0099031, 0.534375, -0.0580758, 12.825, 0.81073, 12.825, -0.1488647, 12.825, -0.256897, 12.825, 0.5045166
0.4427069, -0.010071, 0.5349375, -0.0574044, 12.8385, 0.8192139, 12.8385, -0.125, 12.8385, -0.2374878, 12.8385, 0.5068359
0.4431724, -0.0112459, 0.5355, -0.0540475, 12.852, 0.8228149, 12.852, -0.1125488, 12.852, -0.2282104, 12.852, 0.5081787
0.4436379, -0.0135958, 0.5360625, -0.0527047, 12.8655, 0.8285522, 12.8655, -0.0854492, 12.8655, -0.211731, 12.8655, 0.5112915
0.4441034, -0.0142672, 0.536625, -0.0466621, 12.879, 0.8308716, 12.879, -0.071228, 12.879, -0.2036743, 12.879, 0.5128784
0.444569, -0.0140993, 0.5371875, -0.0396124, 12.8925, 0.8329468, 12.8925, -0.0566406, 12.8925, -0.1953125, 12.8925, 0.5145874
0.4450345, -0.0132601, 0.53775, -0.03122, 12.906, 0.8357544, 12.906, -0.0247803, 12.906, -0.1807861, 12.906, 0.5178223
0.4455, -0.0125887, 0.5383125, -0.0198062, 12.9195, 0.8366089, 12.9195, -0.0073853, 12.9195, -0.1751099, 12.9195, 0.5189819
0.4459655, -0.0109102, 0.538875, -0.0124208, 12.933, 0.8371582, 12.933, 0.0284424, 12.933, -0.1633301, 12.933, 0.5212402
0.446431, -0.0082246, 0.5394375, -0.0127565, 12.9465, 0.8371582, 12.9465, 0.0455933, 12.9465, -0.1569214, 12.9465, 0.5219116
0.4468966, -0.0077211, 0.54, -0.0137636, 12.96, 0.8371582, 12.96, 0.0626831, 12.96, -0.1505127, 12.96, 0.5220947
0.4473621, -0.0095674, 0.5405625, -0.0137636, 12.9735, 0.8362427, 12.9735, 0.0964966, 12.9735, -0.135376, 12.9735, 0.522522
0.4478276, -0.0104067, 0.541125, -0.0104067, 12.987, 0.8353882, 12.987, 0.1143799, 12.987, -0.1294556, 12.987, 0.5217896
0.4482931, -0.0095674, 0.5416875, -0.0060426, 13.0005, 0.8328247, 13.0005, 0.1511841, 13.0005, -0.1192627, 13.0005, 0.5189819
0.4487586, -0.0068818, 0.54225, 0.0010071, 13.014, 0.8308716, 13.014, 0.1693115, 13.014, -0.1140747, 13.014, 0.5175781
0.4492241, -0.0062104, 0.5428125, 0.003357, 13.0275, 0.8288574, 13.0275, 0.1865845, 13.0275, -0.107666, 13.0275, 0.5162964
0.4496897, -0.0075532, 0.543375, 0.0016785, 13.041, 0.8243408, 13.041, 0.2201538, 13.041, -0.0932007, 13.041, 0.5131226
0.4501552, -0.0072175, 0.5439375, -0.0003357, 13.0545, 0.8217163, 13.0545, 0.2370605, 13.0545, -0.086731, 13.0545, 0.5109253
0.4506207, -0.0070497, 0.5445, -0.0010071, 13.068, 0.8190308, 13.068, 0.2536621, 13.068, -0.0809326, 13.068, 0.5081787
0.4510862, -0.0095674, 0.5450625, -0.0016785, 13.0815, 0.8138428, 13.0815, 0.2861938, 13.0815, -0.0693359, 13.0815, 0.5009155
0.4515517, -0.0119173, 0.545625, -0.0010071, 13.095, 0.8113403, 13.095, 0.3005371, 13.095, -0.0618286, 13.095, 0.4975586
0.4520172, -0.0124208, 0.5461875, -0.0073854, 13.1085, 0.8052368, 13.1085, 0.328064, 13.1085, -0.0443115, 13.1085, 0.4920044
0.4524828, -0.0119173, 0.54675, -0.0184634, 13.122, 0.8018799, 13.122, 0.3411865, 13.122, -0.0354614, 13.122, 0.4892578
0.4529483, -0.0093996, 0.5473125, -0.0271916, 13.1355, 0.7979736, 13.1355, 0.3554688, 13.1355, -0.0273438, 13.1355, 0.4859009
0.4534138, -0.0075532, 0.547875, -0.0325628, 13.149, 0.7907104, 13.149, 0.3840332, 13.149, -0.0153809, 13.149, 0.4765015
0.4538793, -0.0072175, 0.5484375, -0.0325628, 13.1625, 0.7872314, 13.1625, 0.3979492, 13.1625, -0.0105591, 13.1625, 0.4708862
0.4543448, -0.0082246, 0.549, -0.0292058, 13.176, 0.7799072, 13.176, 0.4223633, 13.176, 0.0012207, 13.176, 0.4619141
0.4548103, -0.0087282, 0.5495625, -0.0171206, 13.1895, 0.7758789, 13.1895, 0.4337769, 13.1895, 0.0080566, 13.1895, 0.4580078
0.4552759, -0.0077211, 0.550125, -0.0023499, 13.203, 0.7719116, 13.203, 0.4450073, 13.203, 0.0148315, 13.203, 0.4537354
0.4557414, -0.0062104, 0.5506875, 0.0077211, 13.2165, 0.7640381, 13.2165, 0.4661255, 13.2165, 0.0286255, 13.2165, 0.4451904
0.4562069, -0.005539, 0.55125, 0.0124208, 13.23, 0.7599487, 13.23, 0.4758301, 13.23, 0.0362549, 13.23, 0.4412842
0.4566724, -0.0062104, 0.5518125, 0.0046998, 13.2435, 0.7518921, 13.2435, 0.4940796, 13.2435, 0.0487671, 13.2435, 0.4338379
0.4571379, -0.0058747, 0.552375, -0.0221561, 13.257, 0.7481079, 13.257, 0.5026245, 13.257, 0.0534668, 13.257, 0.4299927
0.4576034, -0.0060426, 0.5529375, -0.0543832, 13.2705, 0.7443237, 13.2705, 0.5099487, 13.2705, 0.0592041, 13.2705, 0.427063
0.458069, -0.0070497, 0.5535, -0.0798962, 13.284, 0.7362671, 13.284, 0.5228882, 13.284, 0.0718994, 13.284, 0.4234009
0.4585345, -0.0072175, 0.5540625, -0.0919814, 13.2975, 0.7325439, 13.2975, 0.5286255, 13.2975, 0.0782471, 13.2975, 0.4216919
0.459, -0.0072175, 0.554625, -0.1000381, 13.311, 0.7290039, 13.311, 0.5341797, 13.311, 0.0831909, 13.311, 0.4199219
0.4594655, -0.0083925, 0.5551875, -0.105745, 13.3245, 0.7225342, 13.3245, 0.543457, 13.3245, 0.09198, 13.3245, 0.4172363
0.459931, -0.0099031, 0.55575, -0.0909743, 13.338, 0.7197266, 13.338, 0.5477905, 13.338, 0.0951538, 13.338, 0.4158325
0.4603966, -0.011078, 0.5563125, -0.0459907, 13.3515, 0.715271, 13.3515, 0.553772, 13.3515, 0.1002197, 13.3515, 0.4143066
0.4608621, -0.0112459, 0.556875, 0.0127565, 13.365, 0.7133179, 13.365, 0.555603, 13.365, 0.1026611, 13.365, 0.4146118
0.4613276, -0.0115816, 0.5574375, 0.0520333, 13.3785, 0.7116089, 13.3785, 0.5563965, 13.3785, 0.1051636, 13.3785, 0.4158936
0.4617931, -0.0115816, 0.558, 0.0574044, 13.392, 0.7106934, 13.392, 0.5574951, 13.392, 0.1047363, 13.392, 0.4160767
0.4622586, -0.0115816, 0.5585625, 0.0459907, 13.4055, 0.7115479, 13.4055, 0.5574341, 13.4055, 0.1013184, 13.4055, 0.4155273
0.4627241, -0.012253, 0.559125, 0.0255131, 13.419, 0.7154541, 13.419, 0.5518188, 13.419, 0.0934448, 13.419, 0.4182129
0.4631897, -0.011078, 0.5596875, -0.0130922, 13.4325, 0.7177734, 13.4325, 0.5470581, 13.4325, 0.0899658, 13.4325, 0.4212646
0.4636552, -0.0109102, 0.56025, -0.0654612, 13.446, 0.7205811, 13.446, 0.5410156, 13.446, 0.0866089, 13.446, 0.4249268
0.4641207, -0.0125887, 0.5608125, -0.1215229, 13.4595, 0.727356, 13.4595, 0.5272217, 13.4595, 0.0776367, 13.4595, 0.432373
0.4645862, -0.0142672, 0.561375, -0.158114, 13.473, 0.7313843, 13.473, 0.5198975, 13.473, 0.071167, 13.473, 0.4354858
0.4650517, -0.014435, 0.5619375, -0.1567712, 13.4865, 0.7397461, 13.4865, 0.5032959, 13.4865, 0.0574951, 13.4865, 0.4428711
0.4655172, -0.0137636, 0.5625, -0.1161517, 13.5, 0.7439575, 13.5, 0.4944458, 13.5, 0.0501099, 13.5, 0.4467163
